1635779307.00
64.000000
-0.00
-0.00
-0.00
-0.00
-0.00
-0.00
-0.00
-0.00
-0.00
-0.00
0.00
0.01
0.01
-0.00
-0.03
-0.05
-0.05
0.00
0.13
0.36
0.66
1.01
1.37
1.72
2.06
2.40
2.79
3.24
3.80
4.42
5.06
5.66
6.20
6.68
7.15
7.68
8.31
9.14
10.09
11.04
11.88
12.56
13.14
13.76
14.65
15.96
17.91
20.32
22.90
25.38
27.58
29.57
31.68
34.32
37.81
42.54
48.15
54.10
59.83
64.97
69.58
74.14
79.34
85.71
93.76
103.00
112.62
121.73
129.77
136.75
143.30
150.75
157.77
166.64
177.95
191.79
206.97
220.57
228.25
225.36
208.53
176.87
132.76
80.05
23.07
-34.94
-92.44
-149.16
-205.23
-260.37
-313.74
-363.88
-409.83
-450.91
-486.49
-515.72
-537.20
-549.17
-549.89
-538.27
-514.07
-478.50
-433.65
-382.17
-326.69
-269.45
-212.18
-156.14
-102.37
-51.72
-5.18
36.37
72.30
102.30
126.54
145.51
159.93
170.50
177.84
182.36
184.33
184.00
181.63
177.57
172.23
166.02
159.28
152.27
145.12
137.91
130.67
123.47
116.35
109.39
102.66
96.22
90.08
84.28
78.83
73.72
68.98
64.62
60.63
57.02
53.80
50.94
48.45
46.33
44.58
43.21
42.19
41.50
41.10
40.91
40.83
40.71
40.38
39.66
38.37
36.37
33.56
29.90
25.42
20.20
14.41
8.27
2.05
-3.98
-9.57
-14.48
-18.54
-21.66
-23.80
-24.98
-25.29
-24.84
-23.79
-22.26
-20.41
-18.32
-16.10
-13.79
-11.40
-8.96
-6.47
-3.94
-1.34
1.34
4.12
7.02
10.04
13.22
16.49
19.83
23.23
26.65
30.12
33.63
37.24
40.99
44.97
49.10
53.37
57.77
62.33
67.08
72.06
77.34
83.00
89.15
95.64
102.39
109.36
116.50
123.78
131.19
138.70
146.33
154.13
161.80
169.12
175.87
181.81
186.65
189.99
191.29
189.82
186.89
182.98
178.38
173.23
167.65
161.67
155.33
148.63
141.64
134.46
126.89
118.81
110.18
100.94
91.07
80.52
69.27
57.32
44.75
31.40
17.25
2.31
-13.33
-29.50
-45.90
-62.10
-77.50
-91.33
-102.88
-111.32
-115.87
-115.86
-110.92
-101.03
-86.61
-68.45
-47.67
-25.62
-3.65
17.02
35.38
50.71
62.60
70.88
75.67
77.23
75.92
72.12
66.11
58.08
48.10
36.23
22.68
7.80
-7.85
-23.61
-38.89
-53.33
-66.82
-79.50
-91.64
-103.42
-114.86
-125.76
-135.81
-144.83
-152.96
-160.72
-168.86
-178.16
-189.08
-201.65
-215.43
-229.81
-244.21
-258.37
-272.47
-286.95
-302.56
-320.20
-340.82
-364.96
-392.15
-420.47
-446.58
-466.52
-476.96
-476.40
-465.69
-447.65
-425.96
-403.84
-383.23
-364.63
-347.57
-331.13
-314.38
-296.35
-276.01
-252.20
-223.90
-190.58
-152.54
-111.07
-68.21
-26.38
12.30
46.48
75.72
100.36
121.08
138.44
152.60
163.32
170.26
173.36
173.07
170.34
166.36
162.03
157.78
153.48
148.67
142.96
136.26
128.92
121.58
114.83
108.94
103.85
99.09
94.12
88.42
81.65
73.68
64.69
55.11
45.63
37.21
30.94
27.93
28.85
33.63
41.21
49.74
57.12
61.73
63.05
61.68
58.95
56.20
54.18
52.82
51.52
49.65
46.95
43.66
40.29
37.26
34.61
32.01
29.07
25.58
21.76
18.20
15.63
14.47
14.65
15.55
16.25
15.98
14.45
11.93
9.05
6.51
4.71
3.71
3.31
3.19
3.04
2.63
1.77
0.30
-1.78
-4.23
-6.57
-8.22
-8.73
-8.08
-6.64
-5.11
-4.06
-3.65
-3.45
-2.69
-0.63
2.92
7.40
11.73
14.85
16.24
16.26
15.96
16.42
18.28
21.53
25.88
31.28
38.06
46.28
54.55
59.77
58.07
47.10
27.76
4.50
-16.56
-30.53
-35.85
-34.11
-27.70
-17.31
-1.27
22.73
54.58
89.92
121.06
140.35
144.02
133.96
116.41
98.52
84.87
75.80
68.33
58.36
43.28
23.33
1.10
-19.77
-36.38
-47.40
-53.33
-55.61
-55.78
-54.62
-52.17
-48.24
-42.94
-36.95
-31.30
-26.90
-24.13
-22.82
-22.55
-23.00
-24.02
-25.49
-27.07
-28.13
-27.86
-25.60
-21.17
-15.01
-8.11
-1.79
2.75
4.77
4.26
1.99
-0.78
-2.70
-2.79
-0.70
3.08
7.42
11.00
12.72
12.16
9.74
6.60
4.12
3.24
3.96
5.29
5.78
4.32
0.88
-3.43
-6.91
-8.27
-7.32
-4.96
-2.55
-0.93
0.27
2.45
7.02
14.34
23.03
30.57
34.44
33.45
28.16
20.41
12.19
4.75
-1.53
-6.68
-10.65
-13.15
-13.95
-13.51
-13.02
-14.24
-18.57
-26.11
-35.06
-42.25
-44.30
-39.49
-28.91
-16.32
-6.67
-3.76
-8.34
-17.92
-28.11
-35.09
-37.70
-37.83
-39.11
-44.78
-55.89
-70.96
-86.90
-100.58
-109.95
-114.42
-114.61
-111.51
-105.92
-98.14
-87.95
-75.03
-59.18
-40.77
-20.83
-0.96
17.04
31.67
42.31
49.26
53.38
55.40
55.21
51.81
43.91
31.04
14.44
-2.90
-17.22
-25.47
-26.40
-20.79
-11.01
-0.16
8.59
12.43
9.37
-1.17
-17.97
-38.10
-57.73
-73.62
-84.28
-90.47
-94.54
-98.98
-105.05
-112.29
-118.82
-122.33
-121.02
-114.15
-102.00
-85.46
-65.55
-43.00
-18.20
8.61
36.89
65.46
92.58
116.40
135.63
150.06
160.62
168.75
175.70
181.94
187.16
190.59
191.62
190.00
185.91
179.68
171.71
162.47
152.71
143.38
135.45
129.39
124.95
121.19
117.04
111.91
106.12
100.61
96.34
93.44
90.99
87.34
80.96
71.32
59.11
46.02
33.79
23.53
15.27
8.25
1.34
-6.34
-15.25
-25.53
-37.13
-49.93
-63.53
-77.05
-89.10
-98.04
-102.48
-101.83
-96.59
-88.10
-78.16
-68.40
-59.83
-52.76
-46.92
-41.74
-36.62
-31.07
-24.87
-18.01
-10.68
-3.22
3.94
10.42
15.89
20.13
23.08
24.82
25.62
25.89
26.11
26.65
27.59
28.72
29.66
30.08
29.86
29.16
28.26
27.46
26.86
26.33
25.62
24.55
23.04
21.15
18.99
16.65
14.20
11.72
9.35
7.16
5.16
3.18
0.97
-1.61
-4.41
-6.97
-8.77
-9.51
-9.34
-8.78
-8.44
-8.56
-8.94
-8.96
-8.04
-5.95
-2.95
0.28
3.03
4.75
5.34
5.07
4.43
3.93
3.91
4.49
5.52
6.72
7.77
8.43
8.66
8.58
8.42
8.36
8.42
8.40
7.97
6.80
4.77
2.08
-0.81
-3.31
-5.01
-5.83
-6.06
-6.16
-6.51
-7.26
-8.33
-9.50
-10.60
-11.58
-12.45
-13.25
-13.92
-14.31
-14.20
-13.40
-11.89
-9.84
-7.57
-5.49
-3.96
-3.19
-3.14
-3.60
-4.28
-4.94
-5.46
-5.88
-6.26
-6.65
-7.02
-7.32
-7.55
-7.75
-8.03
-8.47
-9.06
-9.60
-9.79
-9.34
-8.13
-6.33
-4.36
-2.75
-1.91
-1.92
-2.54
-3.30
-3.77
-3.76
-3.35
-2.81
-2.41
-2.29
-2.38
-2.45
-2.33
-1.99
-1.56
-1.29
-1.44
-2.08
-3.09
-4.18
-5.07
-5.54
-5.60
-5.34
-4.93
-4.48
-4.07
-3.72
-3.47
-3.42
-3.57
-3.90
-4.31
-4.65
-4.84
-4.82
-4.64
-4.35
-3.96
-3.47
-2.90
-2.33
-1.88
-1.69
-1.79
-2.08
-2.36
-2.42
-2.14
-1.56
-0.84
-0.20
0.18
0.26
0.10
-0.16
-0.41
-0.58
-0.67
-0.72
-0.79
-0.89
-1.04
-1.15
-1.11
-0.79
-0.11
0.86
1.96
2.93
3.49
3.46
2.77
1.51
-0.07
-1.68
-2.99
-3.77
-3.88
-3.36
-2.39
-1.23
-0.23
0.34
0.29
-0.40
-1.60
-3.08
-4.61
-6.02
-7.21
-8.17
-8.90
-9.32
-9.36
-8.96
-8.20
-7.28
-6.45
-5.86
-5.47
-5.11
-4.60
-3.81
-2.80
-1.69
-0.61
0.35
1.19
1.94
2.59
3.11
3.44
3.55
3.45
3.24
3.04
2.98
3.13
3.49
3.97
4.39
4.58
4.47
4.10
3.60
3.10
2.64
2.20
1.78
1.41
1.19
1.22
1.45
1.71
1.77
1.44
0.74
-0.11
-0.79
-1.09
-0.97
-0.64
-0.41
-0.54
-1.15
-2.09
-3.14
-4.04
-4.67
-4.98
-5.07
-5.05
-4.94
-4.76
-4.45
-4.01
-3.49
-2.99
-2.59
-2.29
-2.01
-1.60
-0.95
-0.03
1.03
2.00
2.58
2.58
1.96
0.87
-0.41
-1.65
-2.64
-3.32
-3.69
-3.82
-3.78
-3.62
-3.40
-3.09
-2.70
-2.25
-1.75
-1.28
-0.93
-0.74
-0.73
-0.82
-0.90
-0.85
-0.61
-0.20
0.32
0.89
1.41
1.85
2.23
2.56
2.85
3.08
3.17
3.04
2.63
2.01
1.32
0.72
0.32
0.14
0.11
0.15
0.23
0.40
0.68
1.09
1.53
1.86
2.01
1.96
1.84
1.76
1.78
1.85
1.91
1.91
1.88
1.91
2.01
2.11
2.08
1.83
1.39
0.90
0.52
0.35
0.39
0.53
0.69
0.78
0.80
0.73
0.51
0.07
-0.64
-1.56
-2.55
-3.40
-4.01
-4.33
-4.43
-4.43
-4.41
-4.49
-4.67
-4.94
-5.22
-5.39
-5.31
-4.93
-4.24
-3.36
-2.40
-1.51
-0.78
-0.28
-0.08
-0.24
-0.81
-1.69
-2.61
-3.18
-3.03
-1.98
-0.18
1.92
3.73
4.76
4.83
4.10
2.88
1.54
0.26
-0.93
-2.04
-3.03
-3.72
-3.85
-3.24
-1.93
-0.17
1.64
3.11
3.99
4.24
3.95
3.38
2.78
2.33
2.05
1.86
1.61
1.16
0.50
-0.26
-0.90
-1.20
-1.10
-0.68
-0.14
0.33
0.64
0.84
1.05
1.32
1.60
1.78
1.74
1.50
1.15
0.82
0.60
0.43
0.22
-0.12
-0.61
-1.15
-1.62
-1.92
-1.99
-1.82
-1.44
-0.86
-0.12
0.69
1.39
1.77
1.63
0.89
-0.40
-1.97
-3.43
-4.39
-4.60
-4.12
-3.17
-2.15
-1.36
-0.93
-0.80
-0.79
-0.77
-0.69
-0.55
-0.33
0.06
0.76
1.84
3.18
4.48
5.45
5.88
5.85
5.67
5.74
6.36
7.57
9.16
10.76
12.00
12.69
12.83
12.63
12.39
12.38
12.68
13.22
13.78
14.25
14.59
14.94
15.42
16.05
16.68
17.06
16.96
16.34
15.21
13.54
11.11
7.42
1.99
-5.21
-13.44
-21.22
-26.92
-29.59
-29.59
-28.59
-28.88
-32.26
-39.18
-48.63
-58.71
-67.63
-74.37
-78.71
-80.76
-80.41
-77.19
-70.67
-61.02
-49.40
-37.68
-27.72
-20.52
-15.75
-11.99
-7.53
-1.30
6.51
14.62
21.32
25.33
26.37
25.15
22.96
21.06
20.18
20.43
21.46
22.79
23.98
24.78
25.07
24.82
24.08
22.86
21.19
19.09
16.70
14.30
12.30
11.10
10.88
11.50
12.49
13.22
13.20
12.21
10.40
8.23
6.39
5.57
6.21
8.41
11.88
16.04
20.21
23.81
26.37
27.51
27.00
24.84
21.33
17.24
13.80
12.42
14.21
19.39
26.91
34.64
39.99
40.77
36.06
26.54
14.22
1.80
-8.28
-14.51
-16.57
-15.19
-11.66
-7.28
-2.97
0.91
4.42
7.86
11.37
14.77
17.58
19.18
19.29
18.13
16.48
15.26
15.08
15.85
16.73
16.59
14.63
10.79
5.60
-0.19
-6.16
-12.43
-19.20
-26.18
-32.23
-35.48
-34.32
-28.20
-18.14
-6.27
5.09
14.40
21.32
26.41
30.63
34.61
38.54
42.30
45.67
48.46
50.33
50.78
49.08
44.67
37.57
28.81
20.30
14.44
13.02
16.26
22.22
27.37
28.00
21.99
9.91
-5.15
-18.99
-28.29
-31.83
-30.69
-27.28
-23.96
-22.03
-21.69
-22.47
-24.05
-26.50
-30.12
-34.98
-40.55
-45.78
-49.45
-50.82
-50.01
-48.06
-46.42
-46.33
-48.27
-51.73
-55.50
-58.10
-58.38
-55.88
-50.96
-44.57
-38.08
-33.05
-30.86
-32.35
-37.38
-44.66
-51.83
-56.12
-55.23
-48.18
-35.90
-20.94
-6.83
3.14
6.83
3.91
-4.28
-15.45
-27.10
-37.23
-44.72
-49.36
-51.69
-52.73
-53.58
-55.15
-57.88
-61.80
-66.55
-71.46
-75.72
-78.22
-77.66
-72.68
-62.22
-46.07
-25.20
-1.87
20.91
40.20
54.01
61.74
64.13
62.69
59.08
54.52
49.72
45.08
40.96
37.90
36.49
37.09
39.44
42.70
45.65
47.14
46.50
43.74
39.45
34.50
29.62
25.27
21.56
18.37
15.57
13.11
11.00
9.32
8.09
7.26
6.66
6.00
4.97
3.31
0.91
-2.19
-5.68
-9.15
-12.19
-14.46
-15.86
-16.42
-16.29
-15.57
-14.33
-12.53
-10.16
-7.23
-3.82
-0.13
3.61
7.09
10.02
12.14
13.34
13.67
13.38
12.79
12.27
12.04
12.20
12.74
13.62
14.77
16.14
17.65
19.18
20.55
21.65
22.41
22.87
23.13
23.29
23.43
23.54
23.62
23.67
23.76
23.94
24.24
24.62
24.94
25.06
24.94
24.68
24.44
24.43
24.69
25.09
25.20
24.43
22.16
17.99
11.96
4.66
-2.82
-9.25
-13.62
-15.58
-15.59
-14.72
-14.24
-15.14
-17.87
-22.37
-28.26
-34.99
-41.85
-47.96
-52.27
-53.76
-51.84
-46.63
-38.99
-30.25
-21.81
-14.64
-9.19
-5.51
-3.42
-2.68
-2.93
-3.64
-4.06
-3.49
-1.49
1.87
6.07
10.30
13.90
16.57
18.42
19.86
21.22
22.62
23.88
24.77
25.17
25.18
25.09
25.13
25.31
25.35
24.83
23.46
21.26
18.56
15.90
13.69
12.12
11.10
10.43
9.98
9.73
9.73
10.03
10.56
11.14
11.53
11.52
11.01
10.02
8.69
7.21
5.73
4.29
2.85
1.38
-0.09
-1.43
-2.44
-3.08
-3.44
-3.82
-4.54
-5.80
-7.53
-9.50
-11.42
-13.14
-14.67
-16.05
-17.37
-18.64
-19.80
-20.92
-22.21
-23.95
-26.35
-29.39
-32.73
-35.78
-37.92
-38.64
-37.73
-35.22
-31.38
-26.58
-21.25
-15.81
-10.64
-6.03
-2.13
1.07
3.70
5.88
7.74
9.27
10.48
11.39
12.07
12.64
13.20
13.77
14.29
14.72
15.11
15.56
16.18
17.00
17.95
18.88
19.65
20.24
20.71
21.09
21.37
21.41
21.04
20.20
18.93
17.45
16.01
14.76
13.81
13.18
12.82
12.67
12.62
12.53
12.23
11.65
10.79
9.70
8.54
7.46
6.59
6.02
5.81
5.98
6.48
7.20
7.97
8.60
8.96
8.96
8.59
7.89
6.94
5.80
4.52
3.13
1.60
-0.08
-1.94
-3.97
-6.14
-8.43
-10.77
-13.12
-15.41
-17.58
-19.66
-21.77
-24.09
-26.77
-29.84
-33.09
-36.11
-38.38
-39.41
-38.86
-36.67
-32.95
-28.04
-22.35
-16.30
-10.24
-4.47
0.86
5.58
9.56
12.66
14.75
15.80
15.98
15.61
15.08
14.74
14.78
15.27
16.13
17.23
18.46
19.70
20.90
21.95
22.80
23.36
23.55
23.33
22.65
21.62
20.36
19.07
17.94
17.09
16.52
16.15
15.82
15.38
14.74
13.85
12.79
11.69
10.74
10.10
9.86
9.94
10.10
10.08
9.70
8.94
7.96
6.98
6.12
5.42
4.77
4.00
3.02
1.86
0.63
-0.57
-1.73
-2.97
-4.46
-6.35
-8.65
-11.17
-13.59
-15.60
-17.03
-17.99
-18.80
-19.88
-21.58
-24.05
-27.17
-30.58
-33.80
-36.25
-37.42
-36.94
-34.67
-30.71
-25.42
-19.26
-12.80
-6.53
-0.90
3.78
7.30
9.62
10.90
11.42
11.50
11.44
11.38
11.36
11.36
11.37
11.45
11.74
12.39
13.47
14.98
16.80
18.70
20.43
21.75
22.53
22.70
22.28
21.34
20.01
18.43
16.83
15.39
14.21
13.25
12.31
11.19
9.74
8.08
6.45
5.15
4.36
4.00
3.80
3.39
2.54
1.24
-0.32
-1.89
-3.27
-4.46
-5.65
-7.09
-8.98
-11.33
-13.97
-16.64
-19.06
-21.11
-22.89
-24.66
-26.72
-29.35
-32.61
-36.36
-40.24
-43.70
-46.12
-46.92
-45.68
-42.22
-36.75
-29.77
-22.07
-14.45
-7.59
-1.88
2.63
6.09
8.84
11.12
13.10
14.79
16.16
17.18
17.89
18.38
18.80
19.26
19.85
20.53
21.23
21.85
22.31
22.66
23.06
23.71
24.77
26.18
27.65
28.71
28.88
27.88
25.69
22.51
18.67
14.56
10.57
7.15
4.76
3.83
4.56
6.77
9.87
13.02
15.35
16.25
15.50
13.26
9.98
6.22
2.58
-0.43
-2.46
-3.38
-3.33
-2.67
-1.93
-1.63
-2.17
-3.77
-6.41
-9.92
-13.97
-18.25
-22.40
-26.12
-29.20
-31.60
-33.44
-35.05
-36.90
-39.50
-43.24
-48.22
-54.16
-60.38
-65.86
-69.50
-70.32
-67.80
-62.03
-53.68
-43.82
-33.61
-24.00
-15.56
-8.50
-2.73
1.92
5.65
8.67
11.25
13.61
15.94
18.28
20.50
22.37
23.66
24.40
24.76
25.10
25.78
27.00
28.78
30.97
33.33
35.60
37.56
39.04
39.94
40.23
39.96
39.33
38.50
37.61
36.66
35.58
34.27
32.76
31.23
29.90
28.94
28.33
27.83
27.12
25.91
24.09
21.75
19.14
16.56
14.24
12.35
10.88
9.72
8.62
7.28
5.54
3.31
0.73
-1.94
-4.49
-6.79
-8.89
-10.93
-13.07
-15.40
-17.92
-20.53
-23.13
-25.64
-28.04
-30.32
-32.58
-34.99
-37.80
-41.27
-45.50
-50.25
-54.84
-58.27
-59.43
-57.51
-52.27
-44.11
-34.02
-23.22
-12.86
-3.73
3.82
9.77
14.31
17.71
20.18
21.89
22.97
23.56
23.82
23.88
23.85
23.79
23.74
23.75
23.91
24.34
25.11
26.25
27.63
29.05
30.24
31.00
31.18
30.78
29.91
28.77
27.54
26.35
25.28
24.28
23.32
22.29
21.19
19.99
18.69
17.32
15.92
14.58
13.37
12.34
11.48
10.69
9.86
8.88
7.76
6.51
5.17
3.71
2.12
0.37
-1.47
-3.27
-4.91
-6.36
-7.72
-9.16
-10.84
-12.83
-15.07
-17.42
-19.74
-21.95
-24.12
-26.41
-29.05
-32.23
-35.97
-40.00
-43.71
-46.33
-47.07
-45.48
-41.55
-35.69
-28.59
-20.97
-13.46
-6.50
-0.36
4.74
8.72
11.57
13.40
14.40
14.79
14.81
14.69
14.57
14.60
14.83
15.27
15.88
16.67
17.70
19.05
20.70
22.52
24.23
25.56
26.32
26.53
26.32
25.81
25.03
23.89
22.29
20.21
17.80
15.31
12.98
10.95
9.26
7.83
6.63
5.63
4.82
4.11
3.34
2.29
0.81
-1.09
-3.26
-5.48
-7.57
-9.56
-11.64
-14.09
-17.02
-20.31
-23.57
-26.34
-28.36
-29.75
-31.04
-32.98
-36.19
-40.90
-46.78
-52.94
-58.19
-61.26
-61.19
-57.54
-50.56
-41.18
-30.74
-20.60
-11.67
-4.20
2.21
8.22
14.26
20.23
25.47
29.14
30.76
30.58
29.75
30.07
33.55
41.77
55.46
74.08
95.75
117.50
135.96
148.08
152.00
147.40
135.49
118.74
100.33
83.57
71.37
65.72
67.24
75.00
86.67
99.01
108.58
112.19
107.22
91.52
63.79
24.27
-24.29
-76.20
-123.54
-158.21
-174.60
-171.56
-152.79
-125.33
-96.86
-73.11
-56.64
-47.08
-42.59
-41.29
-42.08
-44.49
-48.09
-52.01
-54.95
-55.71
-53.89
-50.14
-46.02
-43.25
-42.96
-45.18
-48.89
-52.52
-54.68
-54.82
-53.46
-51.96
-51.91
-54.44
-59.61
-66.33
-72.61
-76.27
-75.77
-70.87
-62.79
-53.82
-46.36
-42.02
-40.95
-41.82
-42.52
-41.26
-37.51
-32.34
-27.94
-26.60
-29.43
-35.87
-43.79
-50.45
-53.66
-52.61
-47.68
-40.05
-31.03
-22.22
-15.83
-14.39
-19.32
-28.97
-37.63
-36.89
-19.48
16.52
65.57
116.30
156.33
177.70
179.82
168.55
152.21
137.34
126.50
118.96
113.03
108.01
104.57
103.61
105.03
107.10
107.16
102.91
93.62
80.45
65.98
53.06
43.68
38.28
35.89
34.66
32.80
29.34
24.41
19.08
14.74
12.47
12.55
14.33
16.72
18.56
19.24
18.84
17.95
17.28
17.23
17.68
18.10
17.86
16.53
14.08
10.92
7.66
4.85
2.83
1.66
1.19
1.23
1.67
2.55
3.94
5.86
8.09
10.18
11.44
11.16
8.83
4.28
-2.25
-10.18
-18.71
-27.04
-34.40
-40.15
-43.85
-45.35
-44.82
-42.70
-39.61
-36.27
-33.24
-30.94
-29.56
-29.09
-29.29
-29.79
-30.17
-30.05
-29.21
-27.69
-25.72
-23.59
-21.57
-19.78
-18.25
-16.93
-15.73
-14.64
-13.64
-12.76
-12.06
-11.61
-11.48
-11.73
-12.27
-12.96
-13.61
-14.06
-14.26
-14.28
-14.26
-14.33
-14.56
-14.96
-15.49
-16.16
-16.98
-17.96
-19.09
-20.24
-21.27
-22.13
-22.91
-23.91
-25.51
-27.95
-31.22
-34.94
-38.44
-41.01
-42.02
-41.16
-38.40
-34.03
-28.52
-22.47
-16.45
-10.90
-6.12
-2.19
0.98
3.51
5.55
7.22
8.61
9.81
10.94
12.10
13.34
14.62
15.85
16.95
17.86
18.59
19.21
19.76
20.24
20.61
20.73
20.54
19.99
19.09
17.97
16.80
15.75
15.00
14.56
14.40
14.35
14.24
13.95
13.45
12.83
12.22
11.71
11.34
11.03
10.67
10.15
9.42
8.50
7.52
6.56
5.71
4.97
4.33
3.69
3.00
2.18
1.20
0.10
-1.04
-2.13
-3.08
-3.89
-4.63
-5.43
-6.43
-7.71
-9.25
-10.95
-12.62
-14.12
-15.40
-16.53
-17.71
-19.23
-21.38
-24.33
-28.02
-32.07
-35.86
-38.63
-39.72
-38.73
-35.68
-30.96
-25.20
-19.08
-13.21
-8.00
-3.70
-0.38
2.02
3.70
4.86
5.71
6.41
6.99
7.47
7.84
8.15
8.49
8.96
9.64
10.58
11.73
13.05
14.44
15.79
16.99
17.97
18.70
19.16
19.31
19.12
18.58
17.75
16.75
15.73
14.80
13.95
13.08
12.06
10.88
9.66
8.64
8.02
7.87
8.07
8.40
8.66
8.71
8.54
8.17
7.66
7.01
6.21
5.23
4.10
2.87
1.65
0.53
-0.46
-1.35
-2.23
-3.20
-4.31
-5.55
-6.81
-7.95
-8.90
-9.67
-10.30
-10.88
-11.43
-11.97
-12.57
-13.34
-14.48
-16.05
-18.01
-20.04
-21.65
-22.29
-21.51
-19.16
-15.34
-10.51
-5.29
-0.35
3.74
6.64
8.27
8.87
8.79
8.48
8.28
8.38
8.81
9.48
10.22
10.91
11.46
11.85
12.09
12.21
12.16
11.84
11.16
10.10
8.68
7.03
5.32
3.75
2.54
1.88
1.94
2.69
3.97
5.44
6.69
7.39
7.44
6.95
6.25
5.69
5.53
5.84
6.52
7.32
7.90
8.01
7.45
6.20
4.40
2.28
0.09
-1.99
-3.88
-5.60
-7.19
-8.69
-10.07
-11.35
-12.52
-13.63
-14.68
-15.68
-16.66
-17.68
-18.91
-20.64
-23.05
-26.13
-29.53
-32.59
-34.53
-34.75
-33.04
-29.60
-24.99
-19.89
-14.89
-10.35
-6.42
-3.13
-0.45
1.61
3.03
3.86
4.22
4.35
4.45
4.69
5.05
5.45
5.74
5.90
6.04
6.40
7.21
8.54
10.28
12.13
13.77
14.97
15.67
15.92
15.86
15.61
15.22
14.74
14.18
13.62
13.09
12.57
11.99
11.25
10.24
8.97
7.57
6.27
5.28
4.72
4.55
4.57
4.53
4.25
3.65
2.81
1.84
0.84
-0.16
-1.16
-2.23
-3.36
-4.58
-5.92
-7.44
-9.23
-11.28
-13.48
-15.57
-17.29
-18.53
-19.42
-20.30
-21.58
-23.60
-26.44
-29.83
-33.23
-35.94
-37.29
-36.81
-34.32
-30.05
-24.54
-18.54
-12.76
-7.71
-3.61
-0.38
2.24
4.45
6.37
7.98
9.22
10.12
10.73
11.18
11.54
11.84
12.09
12.31
12.61
13.10
13.86
14.83
15.84
16.68
17.14
17.14
16.72
16.02
15.17
14.29
13.42
12.61
11.88
11.26
10.77
10.40
10.10
9.78
9.40
8.98
8.56
8.23
8.06
8.03
8.10
8.22
8.33
8.42
8.41
8.20
7.70
6.85
5.72
4.49
3.36
2.50
1.97
1.78
1.86
2.12
2.36
2.31
1.62
-0.01
-2.68
-6.20
-10.15
-14.00
-17.25
-19.53
-20.67
-20.68
-19.77
-18.37
-17.04
-16.35
-16.69
-18.14
-20.40
-22.95
-25.18
-26.56
-26.70
-25.37
-22.48
-18.08
-12.42
-5.93
0.77
7.01
12.14
15.67
17.36
17.28
15.73
13.26
10.49
8.04
6.42
5.97
6.76
8.63
11.16
13.77
15.87
17.00
16.92
15.70
13.66
11.23
8.91
7.08
5.96
5.60
5.84
6.43
7.10
7.63
7.87
7.79
7.37
6.64
5.64
4.49
3.34
2.36
1.71
1.42
1.42
1.52
1.56
1.41
1.07
0.63
0.17
-0.29
-0.82
-1.53
-2.49
-3.67
-4.95
-6.22
-7.38
-8.46
-9.51
-10.61
-11.73
-12.87
-14.02
-15.25
-16.73
-18.62
-20.89
-23.29
-25.30
-26.33
-25.94
-23.97
-20.61
-16.33
-11.65
-7.00
-2.65
1.24
4.54
7.16
8.98
9.95
10.17
9.87
9.38
8.99
8.89
9.11
9.51
9.90
10.12
10.11
9.95
9.80
9.78
9.93
10.21
10.50
10.76
10.96
11.07
11.07
10.83
10.31
9.50
8.53
7.56
6.71
5.98
5.27
4.44
3.46
2.44
1.54
0.85
0.36
-0.08
-0.61
-1.33
-2.25
-3.29
-4.43
-5.66
-7.03
-8.52
-10.09
-11.59
-12.87
-13.85
-14.59
-15.29
-16.24
-17.63
-19.43
-21.34
-22.84
-23.38
-22.63
-20.51
-17.26
-13.28
-9.02
-4.83
-0.96
2.44
5.25
7.39
8.82
9.55
9.72
9.48
9.02
8.55
8.19
7.99
7.97
8.07
8.26
8.55
8.96
9.46
9.99
10.41
10.59
10.48
10.16
9.78
9.52
9.45
9.51
9.51
9.29
8.71
7.74
6.43
4.87
3.20
1.59
0.21
-0.83
-1.54
-2.06
-2.63
-3.44
-4.60
-6.04
-7.60
-9.13
-10.53
-11.85
-13.18
-14.67
-16.43
-18.48
-20.71
-22.89
-24.70
-25.77
-25.81
-24.59
-22.13
-18.60
-14.34
-9.75
-5.25
-1.17
2.29
5.01
6.98
8.24
8.89
9.06
8.93
8.73
8.68
8.95
9.54
10.37
11.22
11.96
12.52
12.96
13.41
13.97
14.66
15.39
16.05
16.51
16.74
16.72
16.47
16.00
15.31
14.39
13.29
12.07
10.79
9.56
8.42
7.40
6.55
5.84
5.24
4.61
3.82
2.71
1.24
-0.52
-2.35
-4.00
-5.26
-6.12
-6.73
-7.36
-8.26
-9.57
-11.27
-13.25
-15.30
-17.24
-18.99
-20.52
-21.93
-23.41
-25.16
-27.34
-29.93
-32.65
-35.01
-36.38
-36.24
-34.28
-30.54
-25.40
-19.47
-13.44
-7.87
-3.12
0.70
3.68
6.03
7.95
9.57
10.91
11.92
12.54
12.76
12.71
12.59
12.60
12.86
13.36
14.01
14.70
15.39
16.13
16.93
17.76
18.50
18.99
19.09
18.82
18.31
17.73
17.20
16.75
16.33
15.85
15.26
14.58
13.82
13.00
12.11
11.15
10.13
9.10
8.11
7.21
6.40
5.65
4.90
4.12
3.27
2.39
1.52
0.72
0.06
-0.47
-0.89
-1.28
-1.71
-2.29
-3.06
-4.04
-5.19
-6.47
-7.80
-9.14
-10.47
-11.81
-13.23
-14.81
-16.63
-18.68
-20.87
-23.07
-25.13
-27.03
-28.88
-30.88
-33.28
-36.28
-39.85
-43.68
-47.18
-49.57
-50.10
-48.32
-44.21
-38.23
-31.16
-23.86
-17.01
-11.03
-6.01
-1.84
1.67
4.68
7.30
9.61
11.67
13.55
15.30
16.95
18.46
19.77
20.80
21.52
21.97
22.26
22.55
22.94
23.44
23.95
24.31
24.38
24.11
23.53
22.75
21.87
20.92
19.92
18.80
17.57
16.27
15.03
14.03
13.36
13.06
13.06
13.21
13.37
13.42
13.36
13.18
12.94
12.71
12.54
12.42
12.30
12.09
11.65
10.87
9.74
8.38
6.96
5.67
4.55
3.56
2.57
1.43
0.06
-1.54
-3.30
-5.11
-6.90
-8.63
-10.32
-12.02
-13.77
-15.59
-17.46
-19.26
-20.88
-22.25
-23.42
-24.60
-26.16
-28.45
-31.69
-35.80
-40.40
-44.85
-48.41
-50.45
-50.58
-48.71
-45.01
-39.86
-33.73
-27.17
-20.74
-14.85
-9.79
-5.63
-2.29
0.39
2.58
4.42
6.03
7.47
8.81
10.11
11.36
12.58
13.81
15.18
16.85
18.95
21.50
24.31
27.04
29.27
30.70
31.24
30.96
30.10
28.93
27.69
26.60
25.79
25.37
25.32
25.50
25.69
25.62
25.10
24.01
22.42
20.48
18.36
16.21
14.15
12.24
10.46
8.79
7.19
5.65
4.16
2.76
1.49
0.32
-0.78
-1.87
-2.99
-4.14
-5.33
-6.59
-8.04
-9.81
-12.00
-14.57
-17.34
-19.99
-22.23
-23.96
-25.30
-26.67
-28.57
-31.43
-35.39
-40.15
-45.04
-49.12
-51.46
-51.35
-48.52
-43.20
-35.98
-27.70
-19.17
-11.06
-3.78
2.43
7.47
11.31
13.99
15.65
16.51
16.88
17.00
17.04
17.04
16.96
16.81
16.70
16.83
17.42
18.56
20.20
22.10
23.96
25.51
26.58
27.13
27.23
26.99
26.46
25.70
24.75
23.66
22.52
21.40
20.35
19.35
18.33
17.21
15.99
14.68
13.39
12.18
11.12
10.18
9.32
8.50
7.66
6.74
5.70
4.45
2.95
1.18
-0.83
-2.98
-5.19
-7.34
-9.37
-11.31
-13.25
-15.25
-17.38
-19.59
-21.78
-23.82
-25.63
-27.18
-28.55
-29.85
-31.36
-33.38
-36.20
-39.93
-44.33
-48.72
-52.10
-53.34
-51.56
-46.39
-38.07
-27.28
-15.05
-2.48
9.37
19.59
27.52
32.95
36.15
37.85
38.93
40.09
41.58
43.26
44.74
45.74
46.21
46.34
46.41
46.69
47.35
48.52
50.25
52.36
54.41
55.62
55.12
52.27
46.93
39.64
31.39
23.31
16.25
10.59
6.15
2.46
-1.08
-4.86
-8.90
-12.76
-15.63
-16.59
-14.99
-10.74
-4.51
2.36
8.13
11.16
10.35
5.45
-2.89
-13.16
-23.46
-31.88
-37.07
-38.46
-36.44
-32.09
-26.85
-22.01
-18.45
-16.53
-16.11
-16.78
-18.02
-19.34
-20.37
-20.85
-20.63
-19.70
-18.08
-15.79
-12.87
-9.40
-5.66
-2.10
0.61
1.88
1.37
-0.75
-3.70
-6.22
-6.82
-4.13
2.61
13.16
26.11
39.08
49.22
54.00
51.98
43.17
28.98
11.75
-5.93
-21.63
-33.42
-39.86
-40.09
-33.99
-22.54
-7.83
7.13
19.15
25.85
26.38
21.60
13.72
5.33
-1.46
-5.58
-7.04
-6.55
-5.01
-3.13
-1.33
0.17
1.10
1.01
-0.68
-4.58
-10.87
-19.21
-28.51
-37.13
-43.17
-44.89
-41.17
-31.82
-17.96
-1.92
13.04
23.40
26.34
20.67
7.20
-11.47
-31.77
-50.19
-64.07
-71.95
-73.48
-69.18
-60.22
-48.31
-35.53
-23.95
-15.16
-9.78
-7.35
-6.67
-6.47
-6.19
-6.20
-7.58
-11.30
-17.42
-24.62
-30.43
-32.14
-27.88
-17.65
-3.58
10.72
21.34
25.56
22.82
14.75
4.33
-5.38
-12.36
-16.03
-16.80
-15.66
-13.78
-12.60
-13.72
-18.47
-27.11
-38.10
-48.19
-53.45
-51.00
-40.25
-23.17
-3.22
16.37
33.98
49.83
64.91
79.32
91.06
96.46
92.05
76.94
54.16
29.95
11.13
1.99
2.43
8.24
13.48
13.64
7.38
-3.32
-14.72
-23.35
-27.44
-27.46
-25.76
-25.93
-31.51
-44.51
-64.00
-85.88
-104.12
-113.25
-110.25
-95.11
-69.80
-36.57
2.64
45.27
86.64
119.63
136.62
133.16
110.98
78.20
46.10
24.06
15.48
17.10
21.69
22.62
17.24
7.68
-1.13
-4.58
-1.04
7.59
17.25
23.95
25.70
23.05
18.28
13.95
11.63
11.42
12.58
14.33
16.48
19.26
22.77
26.44
29.02
29.11
25.87
19.60
11.63
3.88
-1.89
-4.68
-4.51
-2.35
0.17
1.30
-0.19
-4.60
-11.05
-17.80
-22.91
-25.12
-24.39
-21.96
-19.85
-19.98
-23.53
-30.62
-40.62
-52.48
-65.14
-77.55
-88.58
-96.88
-101.17
-100.48
-94.63
-84.25
-70.50
-54.65
-37.78
-20.78
-4.55
9.84
21.39
29.52
34.36
36.77
37.86
38.50
39.00
39.26
39.14
38.71
38.32
38.26
38.52
38.88
39.04
39.03
39.25
40.29
42.42
45.30
48.02
49.40
48.55
45.31
40.29
34.69
29.81
26.53
25.03
24.83
25.02
24.71
23.32
20.78
17.38
13.66
10.10
7.00
4.29
1.70
-1.17
-4.55
-8.35
-12.08
-15.07
-16.81
-17.24
-16.87
-16.63
-17.43
-19.88
-24.09
-29.84
-36.84
-44.92
-53.98
-63.79
-73.89
-83.66
-92.44
-99.72
-105.14
-108.24
-108.37
-104.69
-96.59
-84.15
-68.50
-51.53
-35.32
-21.30
-9.74
0.16
9.72
20.04
31.51
43.66
55.40
65.39
72.39
75.50
74.33
69.04
60.27
49.10
36.89
25.11
15.12
8.06
4.64
5.09
9.14
16.03
24.74
34.08
42.90
50.22
55.32
57.73
57.33
54.34
49.28
42.84
35.79
28.77
22.32
16.89
12.77
10.13
8.90
8.70
8.94
8.94
8.15
6.25
3.19
-0.88
-5.71
-11.01
-16.42
-21.50
-25.86
-29.22
-31.65
-33.58
-35.79
-39.17
-44.52
-52.26
-62.19
-73.33
-83.98
-91.97
-95.14
-91.94
-81.95
-66.07
-46.30
-25.15
-5.00
12.49
26.60
37.40
45.46
51.50
56.08
59.50
61.84
63.06
63.04
61.77
59.40
56.21
52.69
49.39
46.85
45.44
45.32
46.37
48.29
50.60
52.79
54.33
54.79
53.88
51.50
47.83
43.27
38.35
33.58
29.36
25.86
23.06
20.76
18.61
16.18
13.04
8.89
3.72
-2.14
-8.09
-13.45
-17.73
-20.87
-23.23
-25.43
-28.09
-31.58
-35.91
-40.75
-45.60
-49.93
-53.45
-56.22
-58.72
-61.82
-66.43
-73.17
-81.85
-91.26
-99.33
-103.62
-102.06
-93.60
-78.57
-58.61
-36.12
-13.66
6.66
23.54
36.55
45.97
52.47
56.80
59.58
61.19
61.78
61.37
60.00
57.78
54.98
52.03
49.43
47.66
47.07
47.77
49.63
52.20
54.93
57.15
58.29
58.01
56.28
53.38
49.83
46.21
42.99
40.36
38.21
36.23
34.00
31.23
27.86
24.05
20.18
16.65
13.71
11.41
9.51
7.65
5.42
2.53
-1.08
-5.25
-9.60
-13.72
-17.37
-20.56
-23.65
-27.15
-31.46
-36.66
-42.42
-48.13
-53.21
-57.35
-60.68
-63.76
-67.41
-72.55
-79.81
-89.30
-100.31
-111.18
-119.52
-122.75
-118.84
-107.02
-88.10
-64.28
-38.53
-13.77
7.81
25.05
37.78
46.55
52.19
55.51
57.13
57.45
56.78
55.32
53.29
50.90
48.39
46.04
44.13
43.00
42.92
44.06
46.34
49.47
52.85
55.79
57.62
57.82
56.23
53.04
48.78
44.20
40.00
36.70
34.37
32.74
31.23
29.34
26.72
23.38
19.64
15.91
12.58
9.79
7.46
5.33
3.08
0.47
-2.56
-5.89
-9.28
-12.49
-15.39
-18.08
-20.86
-24.19
-28.41
-33.59
-39.42
-45.28
-50.45
-54.51
-57.48
-59.93
-62.86
-67.36
-74.23
-83.64
-94.89
-106.31
-115.50
-119.77
-116.88
-105.72
-86.79
-62.16
-34.91
-8.29
15.16
34.06
48.18
57.95
64.08
67.14
67.51
65.56
61.76
56.76
51.30
46.11
41.77
38.69
37.14
37.24
39.01
42.30
46.79
51.92
56.91
60.81
62.74
62.11
58.87
53.55
47.15
40.77
35.26
30.93
27.57
24.64
21.60
18.19
14.55
11.08
8.23
6.29
5.19
4.49
3.53
1.65
-1.52
-5.92
-11.04
-16.16
-20.67
-24.34
-27.42
-30.45
-34.07
-38.62
-44.03
-49.87
-55.58
-60.69
-65.11
-69.13
-73.42
-78.83
-86.10
-95.61
-107.07
-119.32
-130.35
-137.56
-138.39
-131.09
-115.36
-92.50
-65.16
-36.47
-9.27
14.51
33.95
48.94
59.81
67.01
71.03
72.39
71.64
69.37
66.17
62.54
58.96
55.91
53.80
52.98
53.57
55.50
58.49
62.10
65.82
69.02
71.15
71.76
70.72
68.23
64.76
60.83
56.83
52.89
48.90
44.69
40.12
35.30
30.44
25.84
21.78
18.48
16.05
14.43
13.34
12.32
10.73
8.07
4.06
-1.11
-6.92
-12.64
-17.73
-22.07
-25.98
-30.05
-34.84
-40.57
-47.05
-53.77
-60.18
-65.88
-70.82
-75.22
-79.54
-84.35
-90.31
-98.02
-107.72
-118.86
-129.77
-137.68
-139.33
-132.07
-114.96
-89.37
-58.69
-27.23
1.20
24.32
41.68
54.21
63.35
70.24
75.43
79.03
81.10
81.88
81.74
81.03
79.95
78.56
77.00
75.60
74.85
75.13
76.42
78.12
79.23
78.77
76.25
71.89
66.46
60.87
55.76
51.26
47.03
42.56
37.50
31.91
26.30
21.48
18.15
16.63
16.73
17.85
19.14
19.82
19.37
17.55
14.35
9.89
4.38
-1.96
-8.83
-15.91
-22.92
-29.71
-36.24
-42.55
-48.65
-54.53
-60.12
-65.43
-70.58
-75.92
-81.95
-89.14
-97.65
-106.96
-115.69
-121.72
-122.67
-116.69
-103.16
-83.09
-58.87
-33.56
-9.98
9.99
25.67
37.26
45.39
50.77
53.92
55.29
55.32
54.49
53.22
51.82
50.35
48.80
47.16
45.54
44.25
43.70
44.21
45.86
48.39
51.23
53.67
55.09
55.16
53.90
51.63
48.79
45.75
42.72
39.72
36.67
33.48
30.06
26.46
22.76
19.08
15.58
12.33
9.38
6.58
3.66
0.19
-4.23
-9.84
-16.56
-23.91
-31.13
-37.32
-41.71
-43.84
-43.75
-41.97
-39.34
-36.93
-35.72
-36.49
-39.70
-45.53
-53.90
-64.58
-77.17
-91.10
-105.62
-119.73
-132.24
-141.73
-146.62
-145.34
-136.66
-120.16
-96.64
-68.25
-38.11
-9.59
14.56
32.89
45.30
52.81
56.89
58.91
59.83
60.17
60.13
59.79
59.19
58.35
57.33
56.17
54.99
54.00
53.47
53.69
54.82
56.80
59.32
61.89
63.94
65.02
64.85
63.41
60.85
57.49
53.68
49.78
45.99
42.39
38.87
35.27
31.45
27.43
23.36
19.51
16.12
13.33
11.16
9.51
8.26
7.29
6.46
5.59
4.46
2.82
0.49
-2.61
-6.37
-10.49
-14.64
-18.54
-22.11
-25.47
-28.93
-32.79
-37.22
-42.15
-47.32
-52.39
-57.06
-61.28
-65.25
-69.46
-74.58
-81.23
-89.72
-99.72
-110.03
-118.67
-123.25
-121.64
-112.74
-96.84
-75.64
-51.73
-27.84
-6.16
12.01
26.21
36.57
43.49
47.42
48.84
48.29
46.35
43.68
40.83
38.20
36.05
34.56
33.87
34.11
35.41
37.75
40.93
44.49
47.85
50.41
51.71
51.52
49.90
47.04
43.28
38.94
34.32
29.71
25.32
21.33
17.81
14.74
11.96
9.19
6.11
2.47
-1.86
-6.83
-12.20
-17.60
-22.60
-26.80
-29.96
-32.04
-33.29
-34.07
-34.80
-35.74
-36.92
-38.18
-39.37
-40.50
-41.97
-44.54
-49.17
-56.69
-67.33
-80.33
-93.84
-105.07
-110.99
-109.21
-98.74
-80.40
-56.58
-30.52
-5.34
16.69
34.42
47.72
57.00
62.89
65.94
66.63
65.42
62.84
59.44
55.78
52.33
49.42
47.25
45.85
45.20
45.22
45.88
47.18
49.05
51.29
53.45
54.97
55.27
53.99
51.16
47.17
42.67
38.32
34.52
31.36
28.61
25.92
22.98
19.68
16.12
12.56
9.32
6.64
4.60
3.11
1.89
0.56
-1.26
-3.78
-7.00
-10.63
-14.30
-17.65
-20.68
-23.72
-27.38
-32.20
-38.36
-45.56
-53.07
-60.13
-66.23
-71.34
-75.92
-80.73
-86.65
-94.39
-104.23
-115.78
-127.74
-137.92
-143.55
-142.07
-131.94
-113.31
-88.09
-59.48
-31.01
-5.63
14.94
30.30
41.06
48.32
53.17
56.49
58.84
60.55
61.80
62.72
63.37
63.72
63.74
63.43
62.91
62.45
62.42
63.16
64.74
66.88
69.02
70.47
70.67
69.40
66.84
63.45
59.77
56.22
53.00
50.05
47.20
44.28
41.25
38.16
35.14
32.34
29.88
27.82
26.19
24.90
23.80
22.65
21.19
19.19
16.56
13.40
9.93
6.44
3.16
0.16
-2.65
-5.44
-8.45
-11.83
-15.56
-19.50
-23.40
-27.03
-30.32
-33.42
-36.65
-40.41
-44.99
-50.38
-56.26
-62.09
-67.34
-71.74
-75.48
-79.11
-83.53
-89.65
-98.11
-108.97
-121.42
-133.63
-142.94
-146.49
-142.01
-128.64
-107.38
-80.81
-52.33
-25.18
-1.67
17.13
31.18
41.06
47.61
51.63
53.87
55.01
55.60
56.05
56.60
57.31
58.13
58.98
59.79
60.57
61.45
62.61
64.19
66.18
68.30
70.09
71.00
70.62
68.88
65.95
62.26
58.28
54.38
50.78
47.51
44.43
41.35
38.08
34.55
30.82
27.15
23.81
21.00
18.74
16.88
15.16
13.38
11.45
9.45
7.48
5.60
3.70
1.57
-0.98
-4.04
-7.52
-11.17
-14.74
-18.08
-21.30
-24.67
-28.56
-33.19
-38.47
-44.01
-49.26
-53.70
-57.12
-59.70
-62.01
-64.83
-68.96
-74.98
-83.01
-92.53
-102.27
-110.26
-114.17
-111.95
-102.46
-85.95
-64.16
-39.81
-15.83
5.42
22.65
35.60
44.72
50.64
53.86
54.70
53.40
50.38
46.33
42.11
38.50
36.05
34.91
35.01
36.14
38.13
40.86
44.17
47.73
51.05
53.53
54.66
54.22
52.31
49.36
45.89
42.38
39.10
36.07
33.14
30.07
26.66
22.86
18.78
14.68
10.90
7.71
5.16
3.08
1.13
-1.12
-4.00
-7.51
-11.40
-15.27
-18.79
-21.89
-24.84
-28.08
-32.04
-36.97
-42.74
-48.98
-55.20
-60.99
-66.15
-70.81
-75.38
-80.56
-87.10
-95.56
-105.94
-117.32
-127.80
-134.76
-135.52
-128.23
-112.56
-89.92
-63.13
-35.57
-10.28
10.80
26.92
38.39
46.05
50.83
53.56
54.84
55.19
55.01
54.65
54.38
54.33
54.48
54.76
55.07
55.42
55.89
56.62
57.71
59.03
60.25
60.88
60.49
58.85
56.06
52.52
48.70
44.99
41.56
38.40
35.48
32.77
30.35
28.38
26.95
26.16
26.03
26.55
27.65
29.16
30.73
31.95
32.36
31.69
29.90
27.24
24.05
20.65
17.17
13.50
9.47
4.92
-0.12
-5.43
-10.68
-15.64
-20.31
-24.91
-29.81
-35.33
-41.51
-48.09
-54.60
-60.57
-65.69
-70.00
-73.86
-77.89
-82.82
-89.38
-98.04
-108.69
-120.37
-131.10
-138.17
-138.81
-131.14
-114.85
-91.56
-64.24
-36.43
-11.20
9.59
25.35
36.56
44.21
49.37
52.90
55.39
57.19
58.45
59.28
59.74
59.90
59.86
59.81
59.90
60.30
61.14
62.47
64.24
66.24
68.13
69.49
69.91
69.11
67.03
63.84
59.93
55.74
51.68
47.96
44.61
41.45
38.28
35.01
31.66
28.41
25.42
22.80
20.52
18.45
16.46
14.45
12.38
10.23
8.04
5.84
3.69
1.66
-0.29
-2.26
-4.48
-7.17
-10.43
-14.16
-18.10
-21.89
-25.32
-28.37
-31.30
-34.48
-38.26
-42.77
-47.87
-53.16
-58.15
-62.48
-66.01
-69.05
-72.17
-76.20
-81.92
-89.82
-99.72
-110.55
-120.35
-126.57
-126.72
-119.19
-103.86
-82.27
-57.17
-31.69
-8.46
10.95
26.10
37.29
45.12
50.15
52.77
53.39
52.48
50.65
48.50
46.51
44.92
43.83
43.28
43.33
44.09
45.64
47.94
50.78
53.74
56.33
58.08
58.64
57.88
55.87
52.87
49.20
45.19
41.07
36.94
32.84
28.76
24.77
20.99
17.55
14.52
11.86
9.36
6.82
4.05
1.03
-2.12
-5.18
-7.97
-10.49
-12.87
-15.45
-18.56
-22.46
-27.18
-32.51
-38.02
-43.26
-47.97
-52.19
-56.41
-61.37
-67.88
-76.45
-86.93
-98.27
-108.55
-115.33
-116.31
-110.04
-96.40
-76.76
-53.55
-29.58
-7.23
11.95
27.39
39.21
47.78
53.56
56.89
58.11
57.64
55.99
53.66
51.08
48.61
46.55
45.16
44.71
45.43
47.37
50.34
53.94
57.55
60.52
62.28
62.45
61.01
58.19
54.48
50.43
46.50
42.93
39.70
36.58
33.28
29.61
25.54
21.22
16.94
13.00
9.62
6.82
4.44
2.14
-0.43
-3.55
-7.30
-11.53
-15.95
-20.25
-24.26
-28.08
-32.01
-36.49
-41.88
-48.22
-55.16
-62.11
-68.45
-73.84
-78.42
-82.81
-87.95
-94.77
-103.83
-115.00
-127.18
-138.34
-145.78
-146.86
-139.79
-124.26
-101.72
-74.92
-47.13
-21.26
0.81
18.38
31.70
41.52
48.72
54.08
58.21
61.54
64.33
66.68
68.56
69.87
70.52
70.59
70.30
69.99
70.04
70.72
72.04
73.78
75.47
76.56
76.60
75.37
72.94
69.60
65.75
61.82
58.12
54.80
51.82
48.97
45.99
42.68
39.03
35.22
31.59
28.47
26.01
24.18
22.74
21.38
19.83
17.93
15.59
12.88
9.93
6.94
4.08
1.52
-0.77
-2.93
-5.20
-7.88
-11.12
-14.88
-18.94
-22.99
-26.77
-30.20
-33.41
-36.72
-40.55
-45.20
-50.77
-57.03
-63.48
-69.58
-74.95
-79.55
-83.84
-88.57
-94.70
-102.97
-113.56
-125.70
-137.57
-146.49
-149.52
-144.35
-130.20
-108.12
-80.87
-51.97
-24.75
-1.47
16.96
30.72
40.62
47.55
52.33
55.56
57.76
59.34
60.61
61.73
62.74
63.57
64.15
64.47
64.64
64.84
65.32
66.29
67.77
69.58
71.25
72.15
71.75
69.79
66.41
62.12
57.60
53.39
49.74
46.60
43.71
40.77
37.69
34.53
31.49
28.78
26.45
24.44
22.58
20.71
18.69
16.50
14.13
11.67
9.17
6.65
4.12
1.51
-1.27
-4.35
-7.78
-11.55
-15.58
-19.70
-23.80
-27.89
-32.14
-36.88
-42.35
-48.60
-55.41
-62.31
-68.79
-74.47
-79.25
-83.43
-87.60
-92.60
-99.33
-108.42
-119.83
-132.50
-144.19
-151.87
-152.46
-143.93
-126.01
-100.45
-70.49
-39.82
-11.58
12.33
31.31
45.68
56.22
63.73
68.86
72.19
74.26
75.54
76.46
77.22
77.86
78.26
78.28
77.93
77.41
77.06
77.26
78.25
79.95
81.93
83.51
83.95
82.74
79.76
75.37
70.20
64.98
60.25
56.23
52.79
49.55
46.10
42.19
37.81
33.18
28.70
24.71
21.42
18.72
16.38
14.07
11.53
8.74
5.81
3.00
0.55
-1.44
-3.04
-4.49
-6.18
-8.45
-11.48
-15.20
-19.30
-23.33
-26.97
-30.15
-33.07
-36.09
-39.60
-43.77
-48.57
-53.76
-59.07
-64.29
-69.28
-74.08
-78.84
-83.86
-89.59
-96.47
-104.74
-113.98
-123.01
-129.85
-132.28
-128.55
-118.04
-101.63
-81.40
-59.93
-39.44
-21.17
-5.23
9.06
22.55
35.78
48.63
60.41
70.17
76.92
79.93
78.80
73.51
64.44
52.53
39.29
26.80
17.38
13.04
14.89
22.77
35.25
50.01
64.54
76.73
85.21
89.25
88.53
82.88
72.28
57.11
38.61
19.10
1.68
-10.51
-15.22
-11.92
-1.95
11.91
26.31
38.21
45.40
46.57
41.16
29.23
11.75
-9.17
-30.15
-47.08
-56.27
-55.66
-45.69
-29.22
-10.63
5.47
15.49
17.42
10.89
-3.22
-23.03
-45.90
-68.55
-87.61
-100.38
-105.71
-104.40
-98.84
-91.98
-86.04
-81.73
-78.17
-73.68
-66.72
-56.61
-43.69
-28.90
-13.19
2.75
18.40
33.13
45.97
55.74
61.38
62.43
59.26
53.01
45.25
37.52
31.11
26.78
24.86
25.21
27.36
30.58
34.06
37.00
38.82
39.28
38.45
36.63
34.28
31.82
29.58
27.75
26.36
25.34
24.54
23.77
22.75
21.23
18.91
15.60
11.29
6.24
0.87
-4.26
-8.70
-12.32
-15.33
-18.33
-22.01
-26.95
-33.38
-41.06
-49.38
-57.60
-65.07
-71.51
-77.13
-82.61
-88.91
-97.10
-107.96
-121.56
-137.04
-152.46
-165.13
-172.25
-171.78
-163.07
-147.12
-126.27
-103.34
-80.82
-60.22
-41.91
-25.39
-9.85
5.33
20.34
34.90
48.52
60.72
71.28
80.27
87.99
94.83
101.12
107.06
112.72
118.09
123.16
127.84
131.99
135.30
137.35
137.71
136.14
132.74
127.93
122.42
116.89
111.82
107.27
102.97
98.48
93.48
87.84
81.74
75.50
69.37
63.49
57.77
52.07
46.25
40.30
34.29
28.34
22.50
16.74
10.96
5.02
-1.15
-7.49
-13.83
-19.93
-25.66
-30.96
-35.99
-41.00
-46.20
-51.71
-57.54
-63.54
-69.55
-75.49
-81.41
-87.56
-94.35
-102.27
-111.66
-122.53
-134.26
-145.56
-154.54
-159.17
-157.71
-149.32
-134.26
-113.82
-89.91
-64.53
-39.30
-15.34
6.72
26.43
43.30
56.70
65.99
70.81
71.36
68.53
63.83
59.02
55.68
54.77
56.47
60.30
65.37
70.74
75.66
79.61
82.26
83.36
82.76
80.45
76.64
71.77
66.43
61.17
56.38
52.20
48.48
44.91
41.20
37.15
32.76
28.23
23.81
19.76
16.23
13.23
10.66
8.34
6.04
3.50
0.50
-3.10
-7.26
-11.82
-16.47
-20.87
-24.81
-28.25
-31.33
-34.36
-37.68
-41.53
-45.96
-50.84
-55.88
-60.78
-65.38
-69.75
-74.32
-79.79
-86.89
-96.05
-106.96
-118.32
-127.88
-133.00
-131.31
-121.65
-104.41
-81.54
-55.90
-30.46
-7.57
11.45
26.21
36.98
44.31
48.80
50.99
51.37
50.43
48.72
46.77
45.01
43.80
43.27
43.45
44.31
45.81
47.94
50.68
53.82
57.01
59.71
61.35
61.54
60.17
57.46
53.87
49.91
46.00
42.33
38.79
35.20
31.32
27.08
22.62
18.25
14.33
11.07
8.51
6.45
4.52
2.40
-0.17
-3.19
-6.50
-9.86
-13.03
-15.95
-18.77
-21.81
-25.37
-29.60
-34.35
-39.31
-44.07
-48.39
-52.27
-56.02
-60.18
-65.42
-72.31
-81.14
-91.52
-102.24
-111.24
-116.03
-114.36
-105.04
-88.44
-66.39
-41.68
-17.16
4.95
23.41
37.82
48.27
55.03
58.40
58.79
56.77
53.18
48.92
44.82
41.40
38.93
37.45
36.94
37.46
39.01
41.58
44.98
48.82
52.54
55.55
57.34
57.61
56.28
53.50
49.59
44.93
39.95
35.03
30.43
26.28
22.52
18.93
15.22
11.15
6.67
1.94
-2.74
-6.99
-10.64
-13.72
-16.59
-19.69
-23.43
-28.00
-33.32
-39.04
-44.74
-50.10
-54.97
-59.49
-64.08
-69.34
-75.99
-84.54
-95.00
-106.53
-117.33
-124.83
-126.40
-120.15
-105.66
-84.20
-58.39
-31.40
-6.04
15.78
33.24
46.32
55.46
61.22
64.12
64.73
63.63
61.47
58.86
56.31
54.15
52.55
51.59
51.34
51.87
53.26
55.51
58.44
61.66
64.56
66.49
66.94
65.68
62.88
59.03
54.72
50.50
46.65
43.17
39.81
36.27
32.34
28.05
23.59
19.31
15.54
12.46
9.98
7.84
5.56
2.73
-0.93
-5.37
-10.30
-15.28
-19.95
-24.18
-28.18
-32.36
-37.13
-42.75
-49.11
-55.85
-62.47
-68.50
-73.79
-78.47
-83.14
-88.60
-95.76
-105.15
-116.54
-128.57
-138.80
-144.26
-142.28
-131.49
-112.34
-87.01
-58.77
-30.88
-5.86
14.97
31.33
43.62
52.46
58.52
62.43
64.77
66.11
66.91
67.43
67.80
68.01
68.02
67.87
67.67
67.59
67.92
68.84
70.39
72.37
74.30
75.51
75.41
73.68
70.39
65.99
61.12
56.35
52.01
48.12
44.49
40.92
37.30
33.68
30.24
27.22
24.78
22.93
21.49
20.12
18.41
16.07
13.00
9.37
5.58
2.09
-0.78
-3.01
-4.87
-6.90
-9.57
-13.16
-17.56
-22.36
-27.02
-31.12
-34.56
-37.58
-40.66
-44.26
-48.63
-53.73
-59.24
-64.74
-69.86
-74.47
-78.72
-83.09
-88.31
-95.19
-104.34
-115.74
-128.40
-140.25
-148.42
-149.94
-142.72
-126.36
-102.38
-73.86
-44.40
-17.21
5.66
23.47
36.50
45.58
51.66
55.67
58.39
60.49
62.44
64.42
66.31
67.78
68.52
68.43
67.72
66.84
66.34
66.64
67.83
69.70
71.71
73.22
73.67
72.76
70.56
67.46
63.96
60.54
57.41
54.44
51.32
47.67
43.29
38.34
33.30
28.77
25.31
23.15
22.08
21.57
20.91
19.48
16.93
13.24
8.58
3.20
-2.71
-9.02
-15.46
-21.60
-26.68
-29.89
-30.61
-28.74
-24.88
-20.27
-16.51
-15.22
-17.69
-24.64
-36.05
-51.09
-68.17
-85.12
-99.68
-110.14
-115.89
-117.69
-117.35
-116.93
-117.70
-119.47
-120.55
-118.51
-111.36
-98.53
-81.18
-61.73
-42.70
-25.77
-11.28
1.48
13.50
25.28
36.60
46.69
54.75
60.49
64.14
66.28
67.40
67.75
67.34
66.18
64.56
63.06
62.40
63.08
65.16
68.15
71.17
73.21
73.47
71.65
67.95
63.03
57.74
52.79
48.61
45.20
42.22
39.23
35.89
32.09
27.97
23.80
19.80
16.02
12.36
8.63
4.71
0.68
-3.25
-6.83
-9.96
-12.77
-15.68
-19.15
-23.55
-28.92
-34.95
-41.04
-46.56
-51.05
-54.48
-57.28
-60.25
-64.39
-70.55
-79.12
-89.75
-101.15
-111.20
-117.34
-117.22
-109.43
-94.04
-72.70
-48.12
-23.38
-1.01
17.48
31.67
41.89
48.79
52.98
54.90
54.92
53.46
51.06
48.33
45.80
43.90
42.86
42.74
43.48
44.99
47.13
49.78
52.78
55.82
58.39
59.88
59.71
57.61
53.77
48.83
43.65
38.96
35.05
31.78
28.67
25.23
21.22
16.71
12.03
7.62
3.76
0.56
-2.12
-4.58
-7.14
-10.05
-13.35
-16.92
-20.47
-23.67
-26.28
-28.25
-29.75
-31.14
-32.83
-35.10
-37.97
-41.22
-44.50
-47.53
-50.29
-53.06
-56.43
-61.08
-67.69
-76.71
-88.04
-100.79
-113.11
-122.39
-125.80
-121.27
-108.22
-87.86
-62.94
-36.82
-12.46
8.24
24.59
36.87
45.77
52.01
56.18
58.73
60.07
60.59
60.69
60.63
60.58
60.55
60.50
60.42
60.40
60.69
61.57
63.22
65.51
68.00
69.93
70.57
69.47
66.63
62.52
57.84
53.25
49.15
45.61
42.37
39.11
35.58
31.74
27.79
24.07
20.90
18.39
16.43
14.73
12.99
11.05
8.95
6.81
4.77
2.83
0.80
-1.54
-4.36
-7.68
-11.37
-15.17
-18.86
-22.34
-25.71
-29.20
-33.14
-37.79
-43.17
-49.07
-55.05
-60.60
-65.35
-69.27
-72.72
-76.42
-81.24
-87.93
-96.84
-107.54
-118.70
-128.09
-133.07
-131.26
-121.28
-103.43
-79.61
-52.87
-26.51
-3.13
15.82
30.13
40.33
47.24
51.60
53.97
54.79
54.52
53.65
52.66
51.89
51.53
51.64
52.21
53.21
54.63
56.48
58.70
61.12
63.46
65.28
66.14
65.72
63.95
61.05
57.47
53.73
50.19
46.98
44.00
41.03
37.94
34.77
31.66
28.84
26.43
24.42
22.65
20.88
18.90
16.59
14.01
11.31
8.68
6.27
4.10
2.02
-0.26
-3.08
-6.65
-10.95
-15.72
-20.60
-25.28
-29.66
-33.85
-38.09
-42.52
-47.07
-51.50
-55.51
-58.96
-61.98
-65.01
-68.71
-73.77
-80.73
-89.65
-99.95
-110.27
-118.61
-122.64
-120.40
-110.89
-94.47
-72.87
-48.71
-24.82
-3.52
13.81
26.73
35.52
40.77
43.16
43.31
41.79
39.21
36.20
33.39
31.31
30.29
30.44
31.65
33.69
36.24
39.01
41.78
44.37
46.62
48.33
49.26
49.20
48.05
45.92
43.16
40.19
37.39
34.92
32.65
30.29
27.50
24.11
20.19
16.08
12.19
8.94
6.51
4.88
3.73
2.65
1.18
-0.96
-3.87
-7.42
-11.38
-15.53
-19.81
-24.30
-29.16
-34.50
-40.26
-46.14
-51.78
-56.82
-61.14
-64.94
-68.68
-72.99
-78.53
-85.82
-95.01
-105.61
-116.30
-125.02
-129.26
-126.83
-116.62
-99.08
-76.17
-50.81
-25.95
-3.86
14.34
28.56
39.31
47.27
52.97
56.76
58.86
59.56
59.17
58.10
56.73
55.45
54.54
54.27
54.87
56.43
58.90
62.03
65.34
68.28
70.34
71.14
70.56
68.70
65.82
62.31
58.54
54.82
51.31
48.03
44.87
41.71
38.48
35.20
32.01
29.01
26.27
23.78
21.44
19.20
16.97
14.76
12.56
10.35
8.06
5.56
2.71
-0.56
-4.23
-8.15
-12.06
-15.80
-19.34
-22.88
-26.73
-31.20
-36.39
-42.13
-48.01
-53.55
-58.39
-62.44
-65.95
-69.52
-73.97
-80.16
-88.62
-99.20
-110.83
-121.42
-128.31
-128.93
-121.59
-106.10
-83.97
-57.95
-31.28
-6.81
13.61
29.30
40.53
48.09
52.81
55.41
56.45
56.39
55.71
54.82
54.04
53.52
53.27
53.27
53.53
54.14
55.25
56.98
59.29
61.96
64.55
66.52
67.38
66.83
64.83
61.71
57.96
54.08
50.39
46.90
43.39
39.59
35.36
30.87
26.51
22.69
19.66
17.35
15.45
13.62
11.67
9.67
7.93
6.80
6.46
6.77
7.26
7.24
6.03
3.12
-1.63
-7.95
-15.24
-22.76
-29.84
-36.05
-41.34
-45.88
-49.90
-53.43
-56.27
-58.04
-58.50
-57.77
-56.54
-56.03
-57.78
-63.15
-72.93
-86.76
-102.95
-118.56
-130.02
-134.01
-128.46
-113.23
-90.13
-62.34
-33.45
-6.48
16.68
35.32
49.46
59.44
65.50
67.73
66.30
61.68
54.77
46.87
39.47
33.87
30.94
30.99
33.77
38.64
44.82
51.51
58.00
63.65
67.86
70.11
70.09
67.82
63.73
58.55
53.10
48.04
43.69
40.02
36.77
33.69
30.62
27.53
24.49
21.61
18.95
16.61
14.62
12.99
11.66
10.45
9.17
7.57
5.49
2.82
-0.37
-3.92
-7.56
-11.09
-14.45
-17.78
-21.42
-25.70
-30.83
-36.68
-42.87
-48.82
-54.04
-58.31
-61.79
-65.07
-68.93
-74.16
-81.33
-90.49
-100.99
-111.40
-119.63
-123.35
-120.52
-110.07
-92.23
-68.58
-41.60
-13.99
11.92
34.55
53.04
67.19
77.21
83.69
87.64
90.43
93.60
98.56
106.23
116.71
129.09
141.37
150.99
155.56
153.89
146.77
137.00
128.45
124.62
127.11
134.97
145.09
153.51
156.83
153.26
142.88
127.26
108.76
90.06
73.65
61.53
54.89
53.90
57.67
64.53
72.42
79.44
84.31
86.62
86.77
85.80
85.06
85.81
88.84
94.29
101.55
109.38
116.19
120.47
121.18
118.08
111.73
103.27
93.98
84.86
76.46
68.83
61.82
55.36
49.50
44.47
40.47
37.58
35.58
34.00
32.13
29.15
24.23
16.86
7.03
-4.70
-17.41
-30.19
-42.48
-54.29
-66.00
-77.92
-89.98
-101.61
-112.04
-120.76
-128.01
-134.88
-143.11
-154.69
-171.42
-194.55
-224.49
-260.49
-300.40
-340.65
-376.70
-403.95
-418.93
-420.22
-408.74
-387.09
-358.37
-324.98
-288.25
-248.79
-207.44
-165.96
-126.95
-93.05
-65.80
-45.05
-29.11
-15.84
-3.70
7.57
17.19
24.16
28.07
29.54
29.90
30.52
32.22
34.98
38.09
40.66
41.97
41.76
40.26
38.04
35.66
33.54
31.75
30.10
28.32
26.21
23.80
21.34
19.13
17.39
16.11
15.06
13.93
12.45
10.56
8.42
6.29
4.44
3.01
1.99
1.27
0.66
0.01
-0.84
-1.94
-3.32
-4.97
-6.79
-8.67
-10.44
-11.89
-12.81
-12.99
-12.35
-10.91
-8.90
-6.62
-4.47
-2.71
-1.39
-0.42
0.39
1.22
2.10
3.00
3.80
4.44
4.92
5.26
5.46
5.48
5.26
4.78
4.10
3.37
2.81
2.58
2.77
3.33
4.15
5.05
5.91
6.61
7.08
7.32
7.38
7.34
7.33
7.47
7.82
8.39
9.06
9.66
10.04
10.05
9.71
9.10
8.34
7.53
6.68
5.76
4.72
3.50
2.15
0.74
-0.60
-1.79
-2.75
-3.40
-3.71
-3.66
-3.31
-2.81
-2.40
-2.30
-2.72
-3.69
-5.14
-6.85
-8.56
-10.11
-11.45
-12.67
-13.90
-15.23
-16.66
-18.09
-19.39
-20.45
-21.22
-21.61
-21.51
-20.78
-19.34
-17.22
-14.62
-11.82
-9.09
-6.56
-4.20
-1.93
0.32
2.48
4.39
5.85
6.72
7.04
7.05
7.07
7.43
8.30
9.56
10.97
12.23
13.20
14.05
15.08
16.58
18.67
21.15
23.59
25.49
26.51
26.48
25.48
23.75
21.55
19.08
16.34
12.99
8.47
2.10
-6.47
-16.95
-28.17
-38.11
-44.41
-44.96
-38.72
-26.17
-9.40
8.32
23.39
32.88
35.16
30.25
19.54
5.33
-9.80
-23.42
-33.62
-39.24
-40.04
-36.75
-30.86
-24.15
-18.13
-13.56
-10.38
-7.85
-5.04
-1.16
4.25
11.30
19.91
29.69
40.01
49.90
58.13
63.56
65.40
63.42
58.05
50.18
40.88
31.13
21.71
13.16
5.81
-0.16
-4.71
-7.93
-9.99
-11.18
-11.76
-11.95
-11.81
-11.20
-9.89
-7.71
-4.68
-1.13
2.37
5.13
6.60
6.56
5.16
2.85
0.14
-2.55
-4.99
-7.15
-8.99
-10.48
-11.39
-11.46
-10.44
-8.28
-5.18
-1.62
1.80
4.45
5.81
5.63
4.01
1.44
-1.31
-3.48
-4.55
-4.49
-3.70
-2.86
-2.54
-3.09
-4.49
-6.50
-8.87
-11.40
-14.00
-16.52
-18.72
-20.22
-20.63
-19.66
-17.32
-13.95
-10.06
-6.32
-3.29
-1.34
-0.73
-1.68
-4.36
-8.74
-14.34
-20.21
-25.04
-27.70
-27.79
-25.96
-23.79
-23.05
-24.94
-29.29
-34.57
-38.30
-37.90
-31.70
-19.63
-3.29
14.33
29.74
39.76
42.32
37.01
25.18
9.64
-6.00
-18.22
-24.47
-23.97
-17.78
-8.39
1.13
8.32
12.04
12.82
12.43
13.05
16.34
22.72
31.18
39.61
45.51
46.90
43.07
34.88
24.52
14.94
8.96
8.32
12.99
20.98
28.86
32.96
30.67
21.39
6.69
-10.44
-26.79
-39.90
-48.53
-52.59
-52.56
-49.09
-42.78
-34.26
-24.44
-14.58
-6.29
-1.21
-0.69
-5.38
-14.89
-27.82
-41.95
-54.82
-64.36
-69.37
-69.62
-65.66
-58.59
-49.65
-40.05
-30.81
-22.67
-16.08
-11.09
-7.39
-4.30
-0.94
3.37
8.64
13.92
17.56
17.87
14.13
7.19
-0.56
-5.99
-6.51
-1.10
9.24
22.00
34.16
43.35
48.45
49.66
48.04
44.84
41.06
37.31
34.05
31.76
31.08
32.64
36.56
42.14
47.82
51.58
51.76
47.73
40.13
30.70
21.49
14.18
9.49
7.18
6.37
5.99
5.27
3.95
2.07
-0.13
-2.57
-5.35
-8.72
-12.84
-17.62
-22.65
-27.32
-31.00
-33.39
-34.57
-35.10
-35.78
-37.45
-40.75
-45.98
-52.90
-60.77
-68.34
-74.11
-76.62
-74.87
-68.59
-58.34
-45.28
-30.91
-16.62
-3.48
7.89
17.29
24.75
30.44
34.63
37.61
39.64
40.98
41.82
42.33
42.63
42.82
43.01
43.35
44.01
45.17
46.93
49.32
52.25
55.51
58.87
62.07
64.91
67.22
68.89
69.80
69.97
69.57
68.95
68.57
68.91
70.21
72.46
75.31
78.31
81.10
83.65
86.39
90.13
95.97
104.91
117.48
133.20
150.24
165.56
175.54
176.90
167.65
147.73
119.14
85.62
51.68
21.55
-1.84
-17.52
-26.58
-31.52
-35.32
-40.24
-46.98
-54.60
-61.16
-64.76
-64.51
-60.68
-54.45
-47.15
-39.80
-32.96
-26.97
-22.30
-19.49
-19.01
-20.69
-23.57
-26.31
-28.11
-29.33
-31.50
-36.35
-44.55
-55.01
-65.19
-72.52
-75.72
-75.42
-73.55
-72.00
-71.43
-71.07
-69.46
-65.65
-59.88
-53.43
-47.84
-44.01
-41.82
-40.40
-38.76
-36.29
-33.01
-29.51
-26.58
-24.95
-25.00
-26.59
-29.08
-31.45
-32.70
-32.19
-29.90
-26.46
-22.92
-20.35
-19.47
-20.43
-22.83
-25.95
-29.00
-31.36
-32.68
-32.87
-32.07
-30.53
-28.60
-26.68
-25.13
-24.10
-23.37
-22.29
-19.93
-15.44
-8.37
1.00
11.73
22.58
32.37
40.37
46.49
51.13
54.91
58.41
62.03
65.91
70.01
74.11
77.85
80.79
82.48
82.60
81.05
77.99
73.84
69.23
64.81
61.17
58.79
57.92
58.54
60.33
62.77
65.33
67.64
69.54
70.96
71.69
71.23
68.87
64.13
57.09
48.59
39.88
32.00
25.22
18.82
11.36
1.40
-11.77
-27.81
-45.39
-62.79
-78.49
-91.60
-101.89
-109.56
-115.02
-118.66
-120.84
-121.84
-121.92
-121.20
-119.73
-117.54
-114.97
-112.74
-111.84
-113.14
-116.78
-121.97
-127.16
-130.69
-131.47
-129.25
-124.45
-117.68
-109.35
-99.74
-89.23
-78.51
-68.36
-59.28
-51.11
-43.11
-34.46
-24.85
-14.78
-5.31
2.65
8.88
14.03
19.20
25.28
32.55
40.62
48.81
56.51
63.37
69.17
73.83
77.19
79.20
80.03
79.96
79.31
78.34
77.21
75.98
74.79
73.90
73.69
74.68
77.48
82.67
90.52
100.39
110.32
117.20
117.65
109.60
93.52
72.65
51.85
35.56
25.95
22.26
21.63
20.91
18.29
13.99
9.54
6.60
5.68
5.98
5.97
4.45
1.25
-2.72
-6.11
-8.04
-8.44
-8.03
-7.75
-8.32
-9.96
-12.62
-16.22
-20.69
-25.90
-31.30
-36.07
-39.31
-40.57
-40.14
-38.90
-37.84
-37.49
-37.68
-37.88
-37.74
-37.46
-37.76
-39.39
-42.57
-46.89
-51.48
-55.55
-58.77
-61.30
-63.42
-65.10
-65.80
-64.77
-61.39
-55.66
-48.24
-40.20
-32.57
-26.06
-20.96
-17.21
-14.59
-12.78
-11.43
-10.09
-8.30
-5.63
-1.83
2.96
8.28
13.41
17.60
20.39
21.63
21.48
20.23
18.20
15.75
13.30
11.40
10.56
11.03
12.59
14.58
16.05
16.23
14.78
11.87
8.06
3.94
-0.12
-4.12
-8.28
-12.79
-17.62
-22.40
-26.67
-30.11
-32.74
-34.88
-36.92
-38.91
-40.35
-40.27
-37.63
-31.89
-23.40
-13.38
-3.53
4.64
10.35
13.69
15.38
16.28
16.96
17.52
17.67
17.14
16.06
14.94
14.53
15.34
17.33
19.88
22.06
23.17
23.13
22.61
22.75
24.53
28.25
33.15
37.73
40.35
39.93
36.42
30.76
24.35
18.41
13.52
9.59
6.15
2.87
-0.32
-3.15
-5.38
-7.01
-8.31
-9.66
-11.34
-13.30
-15.24
-16.75
-17.57
-17.58
-17.00
-16.20
-15.66
-15.94
-17.49
-20.52
-24.86
-29.92
-34.84
-38.83
-41.49
-42.97
-43.94
-45.25
-47.61
-51.31
-56.23
-61.85
-67.52
-72.48
-75.96
-77.22
-75.49
-70.19
-61.15
-48.85
-34.44
-19.56
-5.85
5.50
14.02
19.97
23.91
26.32
27.32
26.80
24.69
21.35
17.61
14.58
13.19
13.87
16.40
20.15
24.27
28.12
31.39
34.05
36.18
37.80
38.70
38.49
36.86
33.72
29.35
24.34
19.29
14.66
10.50
6.65
2.87
-0.97
-4.83
-8.65
-12.39
-16.12
-19.81
-23.34
-26.56
-29.46
-32.44
-36.30
-42.00
-50.16
-60.68
-72.68
-84.93
-96.47
-107.02
-116.82
-126.24
-135.09
-142.42
-146.71
-146.60
-141.26
-130.68
-115.54
-96.91
-76.08
-54.45
-33.36
-14.01
2.77
16.61
27.57
35.96
42.28
47.23
51.77
57.03
64.05
73.30
84.38
96.19
107.32
116.69
123.89
129.16
132.99
135.69
137.16
136.91
134.29
128.81
120.36
109.39
96.79
83.81
71.68
61.38
53.38
47.59
43.45
40.22
37.12
33.67
29.68
25.23
20.54
15.79
11.09
6.37
1.53
-3.52
-8.84
-14.40
-20.07
-25.72
-31.24
-36.58
-41.80
-47.07
-52.72
-59.10
-66.43
-74.55
-82.66
-89.39
-93.00
-91.90
-85.21
-73.07
-56.74
-38.15
-19.43
-2.32
12.12
23.56
32.20
38.47
42.92
46.01
48.15
49.72
51.01
52.25
53.48
54.63
55.56
56.17
56.52
56.83
57.39
58.40
59.94
61.87
63.81
65.28
65.76
64.88
62.46
58.68
53.95
48.89
44.03
39.77
36.18
33.08
30.12
27.00
23.59
19.91
16.19
12.68
9.61
7.08
5.03
3.27
1.50
-0.60
-3.32
-6.80
-10.95
-15.50
-20.03
-24.30
-28.32
-32.52
-37.60
-44.28
-52.82
-62.69
-72.39
-79.72
-82.29
-78.31
-67.22
-49.84
-28.20
-4.84
17.88
38.18
55.10
68.33
78.04
84.81
89.39
92.54
94.62
95.43
94.16
89.85
82.05
71.34
59.40
48.41
40.21
35.48
33.52
32.62
30.94
27.25
21.43
14.12
6.27
-1.28
-7.86
-12.76
-15.10
-14.05
-9.24
-1.29
8.19
17.05
23.39
26.19
25.58
22.47
18.01
13.21
8.77
5.17
2.75
1.63
1.64
2.24
2.68
2.35
0.97
-1.32
-4.07
-6.69
-8.70
-9.88
-10.31
-10.28
-10.16
-10.18
-10.40
-10.69
-10.90
-10.99
-11.09
-11.49
-12.49
-14.26
-16.73
-19.60
-22.46
-24.85
-26.47
-27.14
-26.86
-25.71
-23.74
-21.01
-17.62
-13.74
-9.65
-5.75
-2.38
0.26
2.18
3.58
4.73
5.85
7.09
8.48
10.02
11.62
13.21
14.75
16.23
17.73
19.35
21.09
22.82
24.23
25.05
25.15
24.66
23.93
23.32
22.96
22.72
22.23
21.16
19.36
17.06
14.66
12.61
11.16
10.27
9.65
8.97
7.97
6.61
5.04
3.48
2.13
1.05
0.14
-0.76
-1.83
-3.19
-4.86
-6.82
-8.96
-11.14
-13.29
-15.30
-17.17
-18.85
-20.34
-21.61
-22.60
-23.29
-23.63
-23.73
-23.73
-23.93
-24.68
-26.25
-28.82
-32.24
-36.10
-39.78
-42.58
-43.91
-43.45
-41.21
-37.46
-32.64
-27.28
-21.88
-16.82
-12.36
-8.58
-5.42
-2.78
-0.61
1.10
2.29
2.95
3.21
3.32
3.54
4.03
4.83
5.81
6.87
7.96
9.11
10.35
11.59
12.69
13.45
13.75
13.58
13.09
12.43
11.74
11.07
10.42
9.82
9.31
8.94
8.73
8.68
8.70
8.64
8.27
7.33
5.65
3.21
0.24
-2.87
-5.62
-7.74
-9.20
-10.29
-11.46
-13.06
-15.21
-17.73
-20.27
-22.47
-24.16
-25.38
-26.30
-27.07
-27.78
-28.51
-29.34
-30.45
-31.97
-33.81
-35.59
-36.71
-36.54
-34.73
-31.36
-26.86
-21.76
-16.53
-11.40
-6.47
-1.83
2.33
5.76
8.32
9.96
10.87
11.32
11.58
11.85
12.27
12.89
13.70
14.65
15.63
16.52
17.18
17.54
17.58
17.33
16.88
16.35
15.90
15.67
15.74
16.07
16.52
16.84
16.83
16.40
15.57
14.46
13.20
11.87
10.51
9.16
7.87
6.72
5.74
4.91
4.17
3.45
2.76
2.21
1.92
1.93
2.13
2.26
1.95
0.92
-0.92
-3.42
-6.23
-8.98
-11.39
-13.40
-15.15
-16.94
-19.04
-21.67
-24.82
-28.26
-31.59
-34.32
-35.93
-36.02
-34.44
-31.28
-26.88
-21.73
-16.26
-10.83
-5.60
-0.63
4.08
8.49
12.45
15.69
17.87
18.70
18.15
16.50
14.45
12.91
12.74
14.44
17.94
22.59
27.35
31.07
32.82
32.05
28.77
23.46
16.93
10.22
4.30
-0.08
-2.44
-2.68
-0.90
2.54
7.05
11.79
15.68
17.58
16.67
12.82
6.76
-0.02
-5.81
-9.26
-9.85
-8.02
-4.89
-1.71
0.52
1.36
0.87
-0.51
-2.21
-3.64
-4.39
-4.27
-3.41
-2.29
-1.63
-2.14
-4.21
-7.72
-11.98
-15.93
-18.52
-19.08
-17.80
-15.73
-14.67
-16.47
-22.20
-31.53
-42.51
-52.16
-57.59
-56.98
-50.33
-39.28
-26.33
-13.88
-3.42
4.60
10.48
14.67
17.45
18.91
19.03
17.97
16.17
14.19
12.35
10.63
8.61
5.81
2.03
-2.40
-6.58
-9.34
-9.56
-6.51
0.02
9.72
21.94
35.72
49.92
63.19
74.07
80.98
82.54
77.80
66.55
49.55
28.58
6.20
-14.70
-31.53
-42.59
-47.24
-45.99
-40.06
-31.02
-20.42
-9.56
0.45
8.68
14.40
17.18
17.05
14.54
10.65
6.49
3.05
0.93
0.28
0.91
2.47
4.51
6.57
8.15
8.79
8.16
6.10
2.71
-1.76
-6.92
-12.32
-17.34
-21.18
-22.84
-21.24
-15.50
-5.27
8.91
25.55
42.37
56.74
66.40
70.06
67.76
60.94
52.02
43.87
39.04
39.17
44.58
54.22
66.04
77.61
86.76
92.03
92.77
88.92
80.69
68.29
51.70
30.59
4.51
-26.63
-61.87
-98.66
-132.95
-160.21
-176.92
-181.93
-176.61
-163.87
-146.30
-124.87
-98.83
-67.04
-29.90
9.53
45.80
72.72
85.50
82.36
64.84
37.13
4.68
-27.18
-54.27
-74.12
-85.85
-89.85
-87.31
-79.78
-69.04
-57.10
-45.97
-37.46
-32.70
-31.81
-33.77
-36.80
-38.93
-38.69
-35.46
-29.51
-21.72
-13.22
-4.95
2.50
8.88
14.24
18.63
21.96
23.95
24.30
22.85
19.81
15.79
11.59
7.92
5.22
3.47
2.37
1.55
0.76
-0.03
-0.58
-0.49
0.60
2.88
6.23
10.14
13.86
16.63
17.97
17.83
16.59
14.81
12.95
11.21
9.57
7.93
6.28
4.82
3.78
3.31
3.33
3.55
3.67
3.49
3.08
2.71
2.75
3.53
5.41
8.78
14.22
22.28
33.33
47.25
63.10
79.34
94.04
105.61
113.23
117.18
118.73
119.60
121.41
125.14
130.83
137.70
144.34
148.96
149.68
144.80
133.26
115.30
92.85
69.39
49.07
35.29
29.42
30.30
34.85
39.48
41.61
40.45
36.88
32.60
29.02
26.60
24.62
21.38
14.46
1.40
-19.76
-49.51
-86.23
-125.98
-163.15
-191.82
-207.61
-209.09
-198.28
-179.93
-159.91
-143.25
-132.75
-128.43
-128.18
-129.04
-128.51
-125.51
-120.53
-115.10
-110.91
-109.10
-109.94
-113.10
-117.92
-123.77
-130.20
-136.67
-142.56
-147.03
-149.22
-148.38
-143.81
-134.53
-118.75
-94.03
-58.25
-11.34
43.43
99.38
148.20
182.87
200.30
202.20
193.71
180.71
167.04
153.26
137.31
116.60
90.14
59.48
28.28
0.61
-20.66
-34.69
-42.40
-45.48
-45.32
-42.31
-36.15
-26.78
-15.14
-3.37
5.86
10.51
10.23
6.50
1.94
-0.96
-0.88
1.86
5.67
8.51
8.90
6.50
2.09
-2.92
-7.21
-10.07
-11.60
-12.43
-13.25
-14.38
-15.60
-16.33
-15.89
-13.82
-10.11
-5.23
-0.12
3.94
5.68
4.10
-1.10
-9.40
-19.50
-29.75
-38.61
-45.13
-49.06
-50.72
-50.77
-49.92
-48.86
-48.35
-49.24
-52.35
-58.23
-66.70
-76.78
-86.88
-95.37
-101.23
-104.49
-106.05
-107.28
-109.37
-112.83
-117.43
-122.28
-125.90
-126.35
-121.28
-108.50
-86.95
-57.84
-25.11
5.50
28.52
41.03
43.90
41.09
37.52
36.65
39.14
43.25
46.48
47.26
45.70
43.06
40.63
38.77
36.86
33.97
29.66
24.47
19.63
16.40
15.33
16.03
17.18
17.19
14.93
10.26
4.08
-2.10
-6.88
-9.64
-10.63
-10.77
-10.98
-11.71
-12.79
-13.66
-13.83
-13.31
-12.62
-12.65
-14.27
-17.97
-23.79
-31.35
-40.06
-49.35
-58.71
-67.79
-76.38
-84.51
-92.52
-100.93
-110.23
-120.45
-130.84
-139.79
-145.16
-144.81
-137.33
-122.42
-101.04
-75.14
-47.17
-19.56
5.71
27.35
44.82
58.19
67.97
74.77
79.18
81.62
82.48
82.22
81.45
80.94
81.33
83.03
86.06
90.10
94.65
99.17
103.22
106.45
108.58
109.40
108.81
106.88
103.88
100.24
96.40
92.72
89.28
86.00
82.63
79.01
75.04
70.84
66.59
62.44
58.40
54.28
49.81
44.77
39.18
33.31
27.61
22.49
18.12
14.35
10.81
7.06
2.85
-1.80
-6.72
-11.59
-16.29
-20.87
-25.65
-31.21
-38.26
-47.53
-59.48
-73.91
-89.68
-104.61
-115.84
-120.45
-116.41
-103.19
-82.04
-55.60
-27.14
0.28
24.48
44.37
59.82
71.17
78.94
83.54
85.29
84.54
81.70
77.36
72.17
66.79
61.84
57.80
55.05
53.86
54.38
56.60
60.25
64.79
69.48
73.49
76.08
76.78
75.47
72.32
67.71
62.09
55.83
49.26
42.67
36.27
30.25
24.62
19.29
14.01
8.57
2.87
-2.98
-8.64
-13.78
-18.23
-22.10
-25.78
-29.91
-35.24
-42.43
-51.88
-63.51
-76.53
-89.26
-99.36
-104.25
-101.83
-91.17
-72.90
-49.11
-22.76
3.12
26.21
45.14
59.55
69.66
75.90
78.65
78.16
74.74
68.92
61.53
53.63
46.36
40.65
37.13
36.00
37.12
40.09
44.35
49.28
54.20
58.48
61.58
63.04
62.61
60.19
55.97
50.25
43.53
36.29
29.02
21.98
15.28
8.76
2.13
-4.93
-12.62
-20.89
-29.43
-37.75
-45.35
-52.01
-57.91
-63.67
-70.19
-78.41
-88.94
-101.75
-115.97
-129.78
-140.64
-145.74
-142.78
-130.72
-110.22
-83.61
-54.29
-25.70
-0.51
19.92
35.49
46.94
55.31
61.46
65.95
69.11
71.13
72.21
72.58
72.41
71.83
70.90
69.71
68.48
67.55
67.37
68.30
70.44
73.51
76.90
79.84
81.68
82.07
80.96
78.59
75.33
71.51
67.36
63.02
58.61
54.20
49.88
45.72
41.76
38.05
34.65
31.63
29.11
27.12
25.63
24.48
23.39
22.03
20.12
17.52
14.33
10.82
7.33
4.07
1.00
-2.26
-6.20
-11.19
-17.24
-23.90
-30.50
-36.36
-41.23
-45.37
-49.42
-54.14
-59.98
-66.94
-74.57
-82.26
-89.48
-96.09
-102.27
-108.63
-115.97
-125.15
-136.83
-151.02
-166.66
-181.39
-191.83
-194.39
-186.46
-167.42
-139.02
-104.97
-69.70
-37.17
-9.84
11.46
27.27
38.72
47.00
53.02
57.42
60.67
63.23
65.53
67.89
70.50
73.33
76.26
79.19
82.13
85.18
88.39
91.66
94.62
96.74
97.45
96.41
93.66
89.60
84.93
80.39
76.56
73.71
71.78
70.45
69.25
67.76
65.65
62.83
59.32
55.28
50.91
46.44
42.18
38.42
35.42
33.33
32.07
31.31
30.62
29.53
27.76
25.22
22.05
18.54
15.00
11.66
8.59
5.69
2.70
-0.69
-4.72
-9.36
-14.35
-19.25
-23.62
-27.26
-30.31
-33.31
-37.04
-42.15
-48.98
-57.29
-66.35
-75.20
-82.97
-89.26
-94.32
-99.11
-104.96
-113.20
-124.63
-138.97
-154.53
-168.32
-176.63
-176.00
-164.37
-141.88
-110.98
-75.71
-40.62
-9.49
15.42
33.54
45.58
52.94
57.15
59.52
61.04
62.34
63.81
65.53
67.39
69.11
70.40
71.06
71.15
70.95
70.91
71.40
72.62
74.42
76.31
77.70
78.07
77.14
74.97
71.85
68.22
64.45
60.80
57.36
54.06
50.81
47.51
44.14
40.78
37.60
34.75
32.33
30.36
28.75
27.36
26.00
24.50
22.71
20.52
17.86
14.78
11.50
8.26
5.33
2.85
0.74
-1.27
-3.54
-6.39
-9.93
-14.02
-18.34
-22.49
-26.19
-29.44
-32.51
-35.89
-40.00
-45.09
-51.08
-57.60
-64.14
-70.29
-75.83
-80.90
-85.92
-91.58
-98.63
-107.67
-118.72
-130.94
-142.40
-150.35
-151.86
-144.73
-128.35
-104.02
-74.63
-43.85
-15.06
9.34
28.27
41.81
50.71
56.01
58.68
59.53
59.21
58.23
56.95
55.63
54.37
53.26
52.37
51.83
51.84
52.66
54.40
57.04
60.29
63.65
66.53
68.37
68.80
67.69
65.18
61.58
57.31
52.80
48.40
44.31
40.61
37.20
33.92
30.66
27.41
24.24
21.30
18.66
16.38
14.34
12.45
10.54
8.47
6.11
3.38
0.19
-3.41
-7.28
-11.17
-14.86
-18.25
-21.50
-24.90
-28.82
-33.43
-38.65
-44.12
-49.36
-54.00
-57.93
-61.45
-65.15
-69.82
-76.24
-84.86
-95.48
-106.99
-117.34
-123.89
-124.07
-116.24
-100.26
-77.65
-51.19
-24.12
0.70
21.41
37.26
48.38
55.41
59.11
60.11
59.00
56.28
52.52
48.34
44.35
41.12
39.02
38.29
39.00
41.05
44.23
48.17
52.41
56.43
59.74
61.92
62.74
62.13
60.18
57.19
53.52
49.57
45.65
41.93
38.45
35.12
31.82
28.44
24.98
21.50
18.11
14.95
12.08
9.53
7.25
5.16
3.12
0.98
-1.40
-4.16
-7.32
-10.81
-14.43
-17.95
-21.19
-24.19
-27.23
-30.75
-35.17
-40.60
-46.83
-53.32
-59.45
-64.81
-69.32
-73.36
-77.63
-83.03
-90.34
-99.97
-111.58
-123.88
-134.59
-140.95
-140.35
-131.25
-113.71
-89.52
-61.65
-33.42
-7.65
13.90
30.61
42.68
50.77
55.63
57.96
58.41
57.59
56.13
54.57
53.29
52.47
52.08
52.07
52.42
53.25
54.75
57.06
60.07
63.46
66.65
69.00
70.06
69.60
67.72
64.74
61.13
57.31
53.62
50.20
46.97
43.69
40.06
35.90
31.19
26.16
21.21
16.74
13.02
10.10
7.80
5.88
4.10
2.30
0.39
-1.66
-3.91
-6.46
-9.47
-13.09
-17.42
-22.43
-27.94
-33.58
-38.90
-43.49
-47.21
-50.28
-53.26
-56.76
-61.21
-66.60
-72.43
-78.00
-82.65
-86.10
-88.59
-90.88
-94.08
-99.37
-107.52
-118.50
-131.07
-142.74
-150.21
-150.25
-140.81
-121.73
-94.97
-63.97
-32.60
-4.12
19.49
37.62
50.63
59.36
64.72
67.52
68.47
68.20
67.27
66.09
64.90
63.77
62.70
61.73
61.02
60.84
61.49
63.20
65.95
69.43
73.02
75.93
77.40
76.98
74.61
70.70
65.95
61.10
56.70
52.98
49.85
47.02
44.19
41.19
38.05
34.94
32.04
29.48
27.23
25.22
23.30
21.43
19.60
17.85
16.23
14.71
13.22
11.61
9.72
7.38
4.48
0.99
-2.98
-7.20
-11.38
-15.24
-18.71
-21.99
-25.49
-29.70
-34.94
-41.16
-47.99
-54.80
-61.05
-66.44
-71.07
-75.40
-80.16
-86.15
-94.07
-104.10
-115.63
-126.99
-135.58
-138.45
-133.15
-118.72
-96.08
-67.87
-37.69
-9.05
15.52
34.78
48.65
57.80
63.16
65.64
66.03
65.02
63.22
61.08
58.90
56.83
54.95
53.36
52.26
51.93
52.68
54.62
57.62
61.25
64.86
67.73
69.28
69.14
67.29
63.94
59.54
54.59
49.58
44.90
40.71
37.00
33.54
29.99
26.14
21.94
17.60
13.46
9.90
7.11
5.05
3.47
2.03
0.42
-1.58
-4.04
-6.88
-9.92
-12.96
-15.82
-18.45
-21.00
-23.72
-26.90
-30.73
-35.14
-39.91
-44.67
-49.07
-52.94
-56.36
-59.76
-63.84
-69.41
-77.10
-86.94
-98.02
-108.40
-115.47
-116.66
-110.21
-95.86
-74.98
-50.15
-24.47
-0.68
19.39
34.95
46.08
53.32
57.27
58.48
57.42
54.55
50.47
45.86
41.37
37.56
34.84
33.42
33.45
34.95
37.82
41.80
46.40
51.01
54.94
57.62
58.72
58.17
56.17
53.10
49.37
45.30
41.04
36.59
31.93
27.11
22.35
17.99
14.31
11.44
9.16
7.11
4.85
2.17
-0.90
-4.07
-7.04
-9.70
-12.18
-14.87
-18.17
-22.35
-27.36
-32.92
-38.59
-43.97
-48.88
-53.36
-57.73
-62.50
-68.33
-75.85
-85.35
-96.43
-107.72
-116.95
-121.36
-118.58
-107.45
-88.61
-64.37
-37.99
-12.75
8.95
25.95
38.24
46.46
51.50
54.10
54.84
54.12
52.28
49.65
46.56
43.38
40.46
38.16
36.83
36.73
37.95
40.38
43.69
47.36
50.82
53.55
55.17
55.57
54.90
53.54
51.97
50.65
49.83
49.54
49.56
49.56
49.27
48.61
47.73
46.89
46.34
46.14
46.09
45.79
44.78
42.66
39.17
34.26
27.97
20.42
11.80
2.34
-7.64
-17.77
-27.70
-37.17
-46.14
-54.71
-63.05
-71.20
-78.89
-85.50
-90.17
-92.09
-90.89
-86.92
-81.28
-75.72
-72.14
-72.10
-76.29
-84.24
-94.18
-103.40
-108.86
-107.92
-99.10
-82.53
-59.93
-34.11
-8.21
15.03
33.86
47.59
56.46
61.22
62.78
62.03
59.68
56.38
52.68
49.11
46.07
43.88
42.70
42.54
43.27
44.65
46.41
48.26
49.93
51.18
51.84
51.77
50.91
49.24
46.78
43.62
39.91
35.84
31.62
27.40
23.27
19.23
15.22
11.12
6.86
2.42
-2.13
-6.62
-10.82
-14.54
-17.69
-20.28
-22.50
-24.70
-27.26
-30.53
-34.66
-39.54
-44.78
-49.90
-54.49
-58.39
-61.79
-65.21
-69.39
-75.09
-82.80
-92.38
-102.86
-112.33
-118.36
-118.57
-111.43
-96.86
-76.29
-52.33
-27.96
-5.75
12.69
26.88
37.16
44.37
49.38
52.92
55.50
57.40
58.77
59.67
60.14
60.20
59.87
59.20
58.36
57.60
57.24
57.54
58.60
60.25
62.07
63.55
64.17
63.68
62.07
59.60
56.61
53.42
50.24
47.12
44.03
40.91
37.74
34.59
31.55
28.74
26.25
24.13
22.40
21.01
19.88
18.89
17.86
16.62
15.05
13.13
10.95
8.69
6.54
4.63
2.94
1.35
-0.40
-2.57
-5.35
-8.75
-12.60
-16.60
-20.41
-23.85
-27.00
-30.14
-33.70
-37.96
-43.02
-48.65
-54.44
-59.94
-64.85
-69.13
-73.01
-76.95
-81.50
-87.24
-94.53
-103.29
-112.78
-121.49
-127.36
-128.29
-122.76
-110.38
-92.13
-70.10
-46.91
-25.02
-6.15
8.94
20.35
28.71
34.86
39.50
43.16
46.11
48.47
50.26
51.50
52.23
52.54
52.56
52.46
52.44
52.70
53.35
54.45
55.95
57.65
59.20
60.24
60.39
59.47
57.52
54.79
51.69
48.58
45.67
42.98
40.37
37.67
34.83
31.88
29.00
26.37
24.10
22.22
20.59
19.04
17.37
15.47
13.34
11.08
8.83
6.73
4.85
3.17
1.56
-0.18
-2.24
-4.77
-7.82
-11.25
-14.81
-18.19
-21.18
-23.80
-26.26
-28.98
-32.33
-36.52
-41.48
-46.92
-52.36
-57.43
-61.87
-65.76
-69.49
-73.69
-79.09
-86.17
-94.90
-104.45
-113.15
-118.84
-119.36
-113.34
-100.59
-82.28
-60.65
-38.35
-17.78
-0.57
12.65
22.05
28.34
32.45
35.21
37.21
38.78
40.03
40.96
41.51
41.68
41.57
41.40
41.40
41.86
42.93
44.65
46.88
49.30
51.46
52.94
53.41
52.80
51.29
49.19
46.89
44.64
42.54
40.50
38.41
36.11
33.56
30.83
28.05
25.37
22.99
21.05
19.59
18.56
17.78
16.99
15.93
14.41
12.41
10.08
7.61
5.23
3.05
1.03
-0.98
-3.16
-5.61
-8.38
-11.38
-14.46
-17.50
-20.40
-23.19
-26.01
-29.05
-32.52
-36.46
-40.75
-45.10
-49.17
-52.67
-55.57
-58.14
-60.98
-64.88
-70.59
-78.41
-87.90
-97.73
-105.81
-109.79
-107.73
-98.86
-83.77
-64.39
-43.32
-23.12
-5.62
8.31
18.66
25.97
30.95
34.20
36.15
37.02
37.01
36.26
34.99
33.44
31.89
30.63
29.94
30.06
31.14
33.17
36.03
39.41
42.86
45.90
48.06
49.05
48.81
47.49
45.36
42.76
40.02
37.33
34.81
32.44
30.13
27.77
25.28
22.64
19.89
17.16
14.57
12.24
10.19
8.36
6.59
4.73
2.64
0.33
-2.10
-4.47
-6.64
-8.63
-10.57
-12.77
-15.50
-18.89
-22.90
-27.28
-31.70
-35.84
-39.57
-42.94
-46.25
-49.97
-54.63
-60.62
-67.99
-76.25
-84.27
-90.37
-92.74
-89.90
-81.28
-67.43
-49.99
-31.16
-13.10
2.62
15.21
24.62
31.19
35.35
37.44
37.71
36.47
34.08
31.05
27.86
24.97
22.75
21.45
21.32
22.46
24.93
28.52
32.83
37.28
41.31
44.45
46.40
47.12
46.68
45.31
43.18
40.51
37.40
33.95
30.27
26.48
22.76
19.25
16.07
13.22
10.58
8.01
5.36
2.58
-0.27
-3.01
-5.49
-7.69
-9.72
-11.87
-14.47
-17.80
-21.92
-26.68
-31.74
-36.69
-41.21
-45.14
-48.64
-52.11
-56.17
-61.51
-68.55
-77.15
-86.34
-94.35
-99.00
-98.37
-91.40
-78.36
-60.76
-40.88
-21.11
-3.35
11.33
22.63
30.80
36.37
39.85
41.67
42.13
41.48
39.95
37.85
35.57
33.56
32.23
31.89
32.67
34.52
37.29
40.69
44.39
47.96
50.97
52.99
53.73
53.12
51.32
48.70
45.63
42.46
39.35
36.31
33.26
30.09
26.78
23.37
20.05
17.03
14.50
12.53
11.01
9.68
8.20
6.28
3.75
0.64
-2.87
-6.52
-10.12
-13.55
-16.86
-20.23
-23.96
-28.31
-33.43
-39.16
-45.11
-50.77
-55.74
-59.92
-63.65
-67.59
-72.58
-79.26
-87.83
-97.78
-107.77
-115.87
-119.87
-117.91
-109.09
-93.83
-73.83
-51.63
-29.85
-10.53
5.27
17.44
26.52
33.26
38.31
42.11
44.95
47.03
48.56
49.74
50.71
51.47
51.95
52.11
52.03
51.95
52.21
53.09
54.65
56.64
58.62
60.06
60.57
60.02
58.52
56.38
53.90
51.32
48.76
46.18
43.54
40.79
37.95
35.11
32.38
29.84
27.52
25.39
23.34
21.30
19.22
17.09
14.91
12.69
10.44
8.23
6.17
4.33
2.73
1.23
-0.43
-2.55
-5.29
-8.61
-12.23
-15.81
-19.15
-22.29
-25.57
-29.42
-34.13
-39.69
-45.74
-51.74
-57.16
-61.74
-65.57
-69.06
-72.89
-77.82
-84.48
-93.12
-103.33
-113.88
-122.77
-127.64
-126.40
-118.00
-102.77
-82.53
-59.94
-37.80
-18.23
-2.30
9.95
19.17
26.28
32.05
36.93
41.12
44.63
47.43
49.52
51.01
52.00
52.63
52.99
53.19
53.35
53.65
54.27
55.30
56.65
58.06
59.17
59.60
59.18
57.93
56.07
53.87
51.60
49.42
47.32
45.26
43.10
40.73
38.09
35.23
32.26
29.38
26.76
24.48
22.51
20.73
19.00
17.26
15.48
13.69
11.90
10.08
8.21
6.27
4.27
2.21
0.02
-2.42
-5.23
-8.42
-11.85
-15.25
-18.38
-21.22
-24.00
-27.12
-30.95
-35.64
-40.96
-46.43
-51.54
-55.95
-59.72
-63.28
-67.29
-72.45
-79.28
-87.78
-97.33
-106.60
-113.71
-116.64
-113.82
-104.60
-89.58
-70.45
-49.56
-29.24
-11.27
3.43
14.72
23.03
29.00
33.20
36.06
37.88
38.83
39.10
38.89
38.47
38.07
37.93
38.19
38.96
40.26
42.09
44.37
46.92
49.42
51.51
52.83
53.18
52.53
51.06
49.05
46.78
44.43
42.13
39.90
37.70
35.49
33.22
30.83
28.31
25.72
23.16
20.83
18.86
17.33
16.16
15.13
13.98
12.45
10.39
7.80
4.81
1.65
-1.43
-4.25
-6.73
-8.93
-11.00
-13.20
-15.75
-18.84
-22.47
-26.49
-30.60
-34.53
-38.10
-41.37
-44.62
-48.31
-52.95
-58.88
-66.07
-73.92
-81.21
-86.26
-87.33
-83.19
-73.52
-59.14
-41.78
-23.58
-6.49
8.14
19.73
28.34
34.33
38.14
40.07
40.33
39.18
36.95
34.13
31.29
28.95
27.40
26.75
26.91
27.74
29.12
30.99
33.27
35.83
38.40
40.63
42.21
42.94
42.73
41.69
39.97
37.79
35.35
32.84
30.34
27.88
25.43
22.90
20.25
17.51
14.77
12.18
9.85
7.80
5.94
4.07
1.98
-0.52
-3.46
-6.71
-10.00
-13.02
-15.57
-17.75
-19.92
-22.56
-26.09
-30.61
-35.86
-41.31
-46.39
-50.75
-54.43
-57.76
-61.32
-65.73
-71.42
-78.54
-86.70
-94.92
-101.64
-105.01
-103.40
-95.90
-82.78
-65.44
-46.05
-26.87
-9.71
4.51
15.64
24.12
30.51
35.27
38.61
40.62
41.37
41.05
40.03
38.78
37.80
37.43
37.84
38.98
40.65
42.63
44.74
46.88
48.96
50.81
52.18
52.76
52.33
50.88
48.61
45.91
43.14
40.53
38.06
35.58
32.89
29.90
26.66
23.38
20.29
17.59
15.38
13.64
12.21
10.83
9.19
7.03
4.24
0.98
-2.41
-5.54
-8.14
-10.25
-12.20
-14.52
-17.70
-21.98
-27.27
-33.13
-38.98
-44.29
-48.76
-52.47
-55.84
-59.55
-64.37
-70.86
-79.11
-88.51
-97.70
-104.81
-107.80
-105.15
-96.29
-81.86
-63.62
-43.86
-24.83
-8.11
5.56
16.18
24.21
30.22
34.66
37.87
40.05
41.39
42.06
42.23
42.06
41.70
41.33
41.14
41.36
42.20
43.78
46.08
48.88
51.71
54.01
55.30
55.33
54.17
52.17
49.75
47.22
44.68
42.09
39.33
36.40
33.39
30.45
27.74
25.32
23.15
21.14
19.20
17.26
15.31
13.39
11.57
9.89
8.31
6.74
4.97
2.83
0.19
-2.95
-6.40
-9.87
-13.12
-16.03
-18.70
-21.47
-24.71
-28.71
-33.48
-38.77
-44.14
-49.17
-53.59
-57.42
-60.95
-64.64
-69.07
-74.78
-82.09
-90.84
-100.23
-108.68
-114.14
-114.57
-108.67
-96.35
-78.91
-58.63
-38.10
-19.41
-3.78
8.54
17.92
25.00
30.34
34.42
37.54
39.99
41.98
43.71
45.24
46.56
47.59
48.31
48.78
49.14
49.67
50.60
52.06
53.95
55.93
57.51
58.23
57.79
56.20
53.72
50.78
47.84
45.19
42.95
40.99
39.09
37.00
34.60
31.93
29.18
26.58
24.32
22.42
20.78
19.20
17.52
15.68
13.69
11.64
9.59
7.51
5.30
2.81
-0.07
-3.38
-7.01
-10.80
-14.52
-17.97
-21.04
-23.81
-26.48
-29.35
-32.73
-36.81
-41.54
-46.66
-51.81
-56.65
-61.01
-65.03
-69.12
-73.92
-80.05
-87.78
-96.75
-105.79
-113.10
-116.67
-114.93
-107.31
-94.33
-77.52
-58.84
-40.14
-22.80
-7.65
4.90
14.67
21.68
26.12
28.49
29.52
30.08
30.83
32.08
33.73
35.35
36.54
37.18
37.48
37.89
38.79
40.41
42.78
45.88
49.69
54.17
59.07
63.77
67.45
69.20
68.49
65.34
60.40
54.65
48.99
43.85
39.01
33.84
27.73
20.60
13.00
5.92
0.13
-4.32
-8.25
-12.80
-18.38
-24.04
-27.59
-26.61
-19.93
-8.57
4.52
15.77
22.68
24.89
24.09
22.96
23.74
27.37
33.42
40.81
48.57
56.25
63.71
70.67
76.39
79.77
79.85
76.44
70.42
63.37
56.83
51.33
45.83
37.96
25.13
5.93
-18.77
-45.65
-69.99
-87.31
-94.95
-92.85
-83.24
-69.55
-55.28
-43.18
-35.05
-31.87
-33.74
-39.68
-47.38
-53.35
-53.63
-45.00
-26.16
1.55
34.36
67.15
95.07
115.02
126.39
130.78
131.03
129.86
128.84
128.17
127.16
125.19
122.35
119.64
118.38
119.52
123.14
128.64
135.04
141.51
147.43
152.29
155.52
156.38
154.26
149.04
141.34
132.44
123.86
116.72
111.34
107.22
103.34
98.66
92.40
84.22
74.01
61.81
47.81
32.51
16.89
2.36
-9.69
-18.57
-24.78
-29.82
-35.48
-42.91
-51.95
-61.36
-69.61
-75.62
-79.20
-80.74
-80.84
-79.83
-77.97
-75.69
-73.90
-73.75
-76.14
-81.15
-87.86
-94.75
-100.36
-104.05
-106.10
-107.50
-109.38
-112.49
-116.93
-122.10
-127.04
-130.70
-132.35
-131.86
-129.72
-126.91
-124.57
-123.57
-124.08
-125.36
-125.90
-123.99
-118.44
-109.25
-97.70
-85.82
-75.58
-68.14
-63.78
-62.17
-62.49
-63.28
-62.29
-56.75
-44.53
-25.55
-2.37
20.77
40.23
54.86
66.58
78.43
91.85
104.86
112.59
109.91
94.46
67.98
35.54
2.97
-25.47
-47.96
-64.48
-75.76
-82.51
-85.28
-84.50
-80.57
-73.76
-64.39
-53.24
-42.04
-33.27
-29.21
-30.70
-36.34
-42.95
-47.09
-46.82
-42.46
-36.00
-29.75
-24.92
-21.39
-18.50
-15.96
-14.26
-14.29
-16.54
-21.01
-27.44
-35.62
-45.59
-57.33
-70.38
-83.99
-97.58
-110.84
-123.25
-133.27
-138.06
-134.44
-120.71
-98.14
-71.00
-44.84
-23.93
-9.69
-0.79
5.09
9.33
11.52
10.26
4.78
-3.90
-13.10
-19.83
-22.16
-19.85
-13.97
-5.85
3.79
15.03
28.19
43.13
58.67
72.82
83.72
90.65
94.53
97.64
102.44
110.32
120.88
132.00
140.58
143.53
138.72
125.55
104.96
79.05
50.49
21.92
-4.28
-25.89
-40.75
-46.89
-42.99
-29.19
-7.49
18.45
44.19
65.80
80.71
88.03
88.03
81.57
69.66
53.42
34.30
14.12
-5.28
-22.71
-38.22
-52.97
-68.46
-85.21
-101.82
-114.85
-119.94
-113.74
-95.46
-67.52
-34.80
-2.96
23.11
40.27
47.20
43.99
31.82
12.90
-9.73
-32.69
-53.16
-69.60
-81.70
-89.59
-92.68
-89.23
-77.02
-54.88
-23.91
12.25
48.42
79.34
101.03
111.25
109.49
96.60
74.54
46.10
14.68
-16.16
-43.18
-63.87
-76.73
-81.62
-80.08
-75.36
-71.93
-74.12
-84.59
-103.11
-126.65
-150.54
-170.33
-183.10
-187.90
-185.34
-176.73
-163.64
-147.52
-129.81
-111.76
-94.13
-76.83
-59.04
-39.67
-18.31
4.26
26.14
45.12
59.96
71.32
81.93
95.77
116.41
145.43
181.42
220.22
256.21
284.03
299.98
302.74
293.15
273.65
247.47
218.08
188.61
161.46
137.95
118.15
100.98
84.79
68.10
50.16
31.24
12.30
-5.66
-22.19
-37.88
-54.55
-75.18
-103.16
-140.95
-188.39
-241.51
-292.66
-332.46
-352.92
-350.43
-327.09
-289.75
-247.24
-207.16
-173.88
-148.21
-128.72
-113.47
-101.47
-92.98
-89.24
-91.51
-100.16
-114.15
-130.81
-146.38
-157.05
-159.99
-153.88
-138.75
-115.45
-85.28
-50.28
-13.68
19.83
45.03
57.80
56.89
44.61
25.97
6.53
-9.67
-21.07
-28.19
-32.18
-33.67
-32.60
-28.72
-22.56
-15.60
-9.78
-6.47
-5.80
-6.67
-7.27
-6.12
-2.58
3.05
9.95
17.32
24.78
32.38
40.39
48.92
57.66
65.92
72.76
77.33
79.27
78.74
76.41
73.15
69.65
66.21
62.78
59.18
55.38
51.65
48.57
46.68
46.22
46.98
48.33
49.48
49.72
48.71
46.39
42.98
38.77
34.07
29.15
24.30
19.76
15.65
11.88
8.11
3.87
-1.31
-7.64
-15.09
-23.36
-32.10
-41.04
-50.03
-59.08
-68.23
-77.59
-87.24
-97.18
-107.14
-116.29
-123.23
-126.11
-123.23
-113.59
-97.42
-76.20
-52.26
-28.02
-5.43
14.37
30.93
44.24
54.37
61.40
65.57
67.41
67.79
67.77
68.32
70.00
72.82
76.42
80.24
83.90
87.26
90.45
93.62
96.81
99.81
102.19
103.51
103.46
101.96
99.25
95.75
91.92
88.15
84.65
81.47
78.57
75.83
73.14
70.47
67.78
65.06
62.34
59.70
57.22
54.97
52.97
51.10
49.18
47.01
44.47
41.54
38.30
34.85
31.24
27.46
23.40
19.05
14.46
9.83
5.39
1.24
-2.74
-6.88
-11.58
-17.16
-23.60
-30.53
-37.31
-43.31
-48.20
-52.17
-55.92
-60.47
-66.87
-75.73
-86.94
-99.52
-111.66
-121.07
-125.44
-123.04
-113.19
-96.48
-74.63
-50.09
-25.44
-2.82
16.40
31.71
43.18
51.28
56.53
59.48
60.63
60.54
59.78
58.90
58.36
58.38
59.03
60.28
62.09
64.49
67.55
71.25
75.36
79.43
82.84
84.98
85.42
84.07
81.16
77.23
72.89
68.76
65.23
62.42
60.12
57.94
55.43
52.36
48.77
45.05
41.68
39.01
37.10
35.67
34.21
32.24
29.47
25.95
21.90
17.64
13.33
9.01
4.48
-0.50
-6.09
-12.34
-19.05
-25.92
-32.60
-38.86
-44.62
-50.04
-55.50
-61.49
-68.51
-76.91
-86.58
-96.76
-106.03
-112.39
-113.81
-108.76
-96.76
-78.61
-56.21
-32.01
-8.42
12.66
30.12
43.55
53.11
59.24
62.50
63.45
62.67
60.68
58.02
55.21
52.75
51.02
50.26
50.54
51.74
53.67
56.07
58.73
61.37
63.73
65.48
66.28
65.86
64.16
61.32
57.70
53.70
49.69
45.88
42.31
38.90
35.50
31.96
28.17
24.16
20.07
16.18
12.76
9.98
7.81
5.97
4.09
1.84
-0.92
-4.12
-7.58
-11.04
-14.33
-17.43
-20.43
-23.55
-27.05
-31.18
-36.04
-41.56
-47.44
-53.27
-58.69
-63.55
-68.01
-72.57
-77.96
-84.88
-93.73
-104.20
-115.08
-124.35
-129.50
-128.29
-119.41
-103.02
-80.78
-55.40
-29.88
-6.72
12.58
27.62
38.82
46.92
52.67
56.60
59.03
60.23
60.49
60.18
59.65
59.13
58.70
58.31
57.94
57.63
57.60
58.11
59.33
61.18
63.29
65.02
65.71
64.95
62.67
59.24
55.28
51.41
48.01
45.13
42.55
39.95
37.13
34.09
31.02
28.18
25.75
23.72
22.00
20.41
18.80
17.03
15.04
12.74
10.11
7.20
4.14
1.15
-1.61
-4.08
-6.37
-8.67
-11.19
-14.02
-17.08
-20.21
-23.31
-26.43
-29.82
-33.75
-38.45
-43.84
-49.63
-55.34
-60.58
-65.18
-69.27
-73.26
-77.78
-83.48
-90.89
-100.13
-110.61
-120.93
-128.91
-132.15
-128.66
-117.58
-99.59
-76.69
-51.66
-27.25
-5.55
12.31
26.04
36.00
42.83
47.24
49.90
51.37
52.10
52.39
52.41
52.21
51.83
51.32
50.78
50.37
50.27
50.68
51.69
53.26
55.12
56.85
57.94
58.01
56.94
54.89
52.19
49.25
46.35
43.59
40.97
38.33
35.59
32.67
29.59
26.46
23.46
20.81
18.66
17.06
15.86
14.73
13.35
11.47
9.09
6.46
3.97
1.92
0.40
-0.84
-2.24
-4.27
-7.16
-10.79
-14.75
-18.54
-21.82
-24.59
-27.22
-30.25
-34.11
-38.95
-44.47
-50.11
-55.32
-59.73
-63.37
-66.63
-70.15
-74.69
-80.92
-89.19
-99.20
-109.79
-118.85
-123.78
-122.17
-112.67
-95.53
-72.75
-47.37
-22.65
-1.09
16.03
28.66
37.53
43.63
47.84
50.72
52.59
53.59
53.87
53.59
52.92
52.06
51.18
50.44
49.93
49.76
50.02
50.79
52.05
53.66
55.26
56.41
56.67
55.79
53.85
51.23
48.44
45.96
43.97
42.44
41.12
39.74
38.10
36.14
33.89
31.49
29.12
26.99
25.26
23.93
22.85
21.71
20.19
18.06
15.35
12.26
9.04
5.87
2.78
-0.34
-3.61
-7.07
-10.62
-14.10
-17.36
-20.38
-23.24
-26.16
-29.28
-32.69
-36.35
-40.13
-43.90
-47.57
-51.14
-54.65
-58.21
-62.00
-66.26
-71.35
-77.59
-85.10
-93.50
-101.71
-108.02
-110.47
-107.42
-98.20
-83.38
-64.65
-44.32
-24.68
-7.45
6.47
16.93
24.30
29.17
32.15
33.76
34.35
34.23
33.68
33.00
32.45
32.23
32.37
32.80
33.40
34.14
35.10
36.41
38.16
40.18
42.12
43.52
43.98
43.29
41.52
38.94
35.91
32.82
29.93
27.39
25.19
23.20
21.29
19.35
17.40
15.49
13.72
12.10
10.56
8.94
7.09
4.87
2.22
-0.85
-4.25
-7.84
-11.44
-14.90
-18.22
-21.47
-24.85
-28.50
-32.43
-36.47
-40.37
-43.91
-47.10
-50.28
-54.04
-59.11
-66.08
-75.17
-85.98
-97.34
-107.39
-113.90
-114.78
-108.72
-95.72
-77.17
-55.56
-33.76
-14.21
1.63
13.44
21.77
27.54
31.58
34.38
36.09
36.81
36.69
36.07
35.34
34.86
34.81
35.23
36.07
37.34
39.13
41.54
44.53
47.84
50.94
53.23
54.18
53.53
51.36
48.10
44.33
40.66
37.51
35.05
33.15
31.48
29.65
27.41
24.73
21.79
18.90
16.31
14.06
12.04
10.00
7.73
5.09
2.09
-1.15
-4.48
-7.77
-10.93
-13.97
-17.02
-20.27
-23.90
-28.04
-32.58
-37.28
-41.80
-45.84
-49.32
-52.41
-55.47
-59.00
-63.49
-69.25
-76.16
-83.48
-89.81
-93.21
-91.77
-84.21
-70.50
-51.97
-30.98
-10.22
8.15
22.93
33.97
41.73
46.84
49.74
50.65
49.67
47.09
43.43
39.42
35.77
32.97
31.26
30.64
31.04
32.35
34.46
37.25
40.42
43.62
46.37
48.23
48.85
48.08
45.98
42.87
39.19
35.45
31.99
28.88
25.90
22.63
18.70
14.00
8.76
3.47
-1.34
-5.34
-8.61
-11.47
-14.47
-18.03
-22.37
-27.39
-32.79
-38.21
-43.34
-48.09
-52.59
-57.22
-62.52
-69.10
-77.41
-87.49
-98.64
-109.31
-117.22
-119.90
-115.40
-103.06
-83.78
-59.83
-34.23
-9.86
11.25
28.16
40.95
50.22
56.70
60.92
63.29
64.11
63.76
62.70
61.39
60.17
59.22
58.55
58.17
58.17
58.70
59.95
62.00
64.69
67.68
70.45
72.52
73.54
73.35
71.96
69.51
66.20
62.27
57.95
53.38
48.60
43.59
38.26
32.59
26.66
20.72
15.14
10.24
6.17
2.72
-0.55
-4.27
-8.95
-14.80
-21.64
-29.00
-36.25
-42.93
-48.84
-54.12
-59.21
-64.73
-71.35
-79.59
-89.53
-100.56
-111.26
-119.49
-122.96
-119.89
-109.70
-93.29
-72.82
-51.01
-30.36
-12.51
1.90
13.06
21.52
27.92
32.70
36.20
38.62
40.17
41.04
41.37
41.29
40.89
40.29
39.65
39.22
39.26
40.00
41.47
43.51
45.70
47.49
48.36
48.01
46.41
43.84
40.73
37.49
34.34
31.27
28.09
24.53
20.44
15.85
11.00
6.25
1.93
-1.79
-4.99
-7.97
-11.11
-14.66
-18.67
-22.91
-27.02
-30.66
-33.72
-36.47
-39.45
-43.28
-48.50
-55.25
-63.20
-71.43
-78.52
-82.71
-82.33
-76.26
-64.37
-47.70
-28.20
-8.22
10.14
25.50
37.28
45.61
50.90
53.66
54.31
53.28
51.04
48.17
45.26
42.83
41.24
40.63
40.95
42.03
43.61
45.44
47.28
48.98
50.38
51.32
51.66
51.20
49.74
47.16
43.46
38.87
33.80
28.75
24.11
20.01
16.29
12.54
8.34
3.43
-2.10
-7.91
-13.51
-18.53
-22.82
-26.54
-30.11
-34.09
-39.08
-45.48
-53.37
-62.32
-71.30
-78.82
-83.13
-82.73
-76.82
-65.58
-50.21
-32.60
-14.87
1.23
14.62
24.97
32.54
37.90
41.60
44.02
45.35
45.68
45.17
44.10
42.82
41.61
40.65
39.99
39.57
39.40
39.56
40.12
41.07
42.13
42.80
42.54
40.96
38.06
34.13
29.73
25.36
21.33
17.66
14.17
10.53
6.48
1.89
-3.08
-8.13
-12.89
-17.12
-20.86
-24.44
-28.34
-33.02
-38.63
-44.98
-51.62
-58.04
-63.88
-69.10
-73.96
-79.04
-85.10
-92.86
-102.74
-114.39
-126.48
-136.76
-142.58
-141.66
-132.91
-116.86
-95.51
-71.69
-48.23
-27.20
-9.63
4.40
15.42
24.08
31.00
36.59
41.11
44.74
47.62
49.89
51.67
53.03
54.02
54.72
55.30
55.98
57.07
58.73
60.93
63.38
65.59
67.04
67.38
66.51
64.60
61.98
58.91
55.61
52.20
48.79
45.48
42.38
39.48
36.67
33.78
30.64
27.22
23.65
20.15
16.93
14.09
11.58
9.24
6.89
4.36
1.57
-1.52
-4.88
-8.38
-11.86
-15.17
-18.24
-21.19
-24.35
-28.12
-32.82
-38.56
-45.07
-51.82
-58.20
-63.75
-68.40
-72.47
-76.69
-81.94
-89.03
-98.34
-109.56
-121.42
-131.79
-138.04
-137.76
-129.52
-113.47
-91.35
-66.02
-40.62
-17.68
1.39
16.34
27.72
36.35
42.96
48.05
51.95
54.95
57.30
59.23
60.83
62.01
62.67
62.76
62.42
61.94
61.72
62.05
63.01
64.49
66.13
67.50
68.17
67.90
66.62
64.47
61.72
58.67
55.58
52.59
49.72
46.97
44.28
41.63
39.05
36.56
34.19
31.98
29.93
28.03
26.24
24.49
22.69
20.71
18.52
16.10
13.57
11.03
8.59
6.29
4.03
1.63
-1.09
-4.27
-7.92
-11.94
-16.09
-20.14
-23.90
-27.36
-30.68
-34.15
-38.07
-42.62
-47.75
-53.23
-58.68
-63.79
-68.45
-72.82
-77.33
-82.63
-89.34
-97.81
-107.77
-118.10
-126.87
-131.69
-130.36
-121.61
-105.61
-83.93
-59.15
-34.11
-11.23
7.96
22.91
33.80
41.21
45.90
48.57
49.89
50.42
50.63
50.84
51.19
51.62
51.96
52.04
51.86
51.63
51.76
52.62
54.39
56.84
59.46
61.55
62.56
62.24
60.68
58.23
55.31
52.22
49.12
46.01
42.85
39.64
36.38
33.11
29.91
26.86
24.05
21.52
19.29
17.27
15.35
13.38
11.29
9.09
6.88
4.74
2.63
0.42
-2.09
-5.08
-8.51
-12.19
-15.82
-19.12
-22.04
-24.77
-27.68
-31.13
-35.33
-40.25
-45.56
-50.86
-55.76
-60.05
-63.83
-67.43
-71.45
-76.57
-83.31
-91.78
-101.28
-110.32
-116.69
-118.03
-112.53
-99.62
-80.24
-56.61
-31.69
-8.25
11.70
27.27
38.52
46.07
50.67
52.96
53.42
52.50
50.69
48.49
46.41
44.77
43.69
43.10
42.87
42.95
43.39
44.31
45.79
47.73
49.81
51.60
52.62
52.59
51.45
49.45
46.93
44.26
41.63
39.09
36.57
33.97
31.25
28.42
25.54
22.64
19.72
16.84
14.09
11.55
9.29
7.22
5.18
2.93
0.32
-2.68
-5.92
-9.16
-12.18
-14.88
-17.41
-20.09
-23.28
-27.26
-32.04
-37.34
-42.68
-47.61
-51.89
-55.62
-59.19
-63.22
-68.32
-74.92
-83.10
-92.33
-101.43
-108.60
-111.77
-109.06
-99.50
-83.36
-62.22
-38.58
-15.18
5.70
22.62
35.12
43.47
48.36
50.57
50.79
49.58
47.43
44.72
41.84
39.12
36.82
35.20
34.46
34.72
36.04
38.31
41.27
44.53
47.63
50.07
51.47
51.61
50.44
48.12
44.92
41.18
37.21
33.26
29.55
26.15
23.03
20.04
16.91
13.39
9.34
4.84
0.17
-4.28
-8.17
-11.37
-14.02
-16.52
-19.30
-22.71
-26.86
-31.58
-36.48
-41.20
-45.48
-49.28
-52.85
-56.56
-60.92
-66.39
-73.30
-81.59
-90.62
-99.01
-104.78
-105.76
-100.26
-87.73
-69.04
-46.33
-22.41
0.07
19.21
34.17
44.99
52.17
56.30
57.85
57.20
54.75
51.08
46.90
42.93
39.72
37.57
36.46
36.24
36.73
37.81
39.49
41.73
44.39
47.11
49.40
50.73
50.80
49.56
47.27
44.41
41.41
38.58
35.95
33.41
30.72
27.78
24.59
21.28
18.06
15.08
12.38
9.89
7.44
4.86
2.00
-1.18
-4.62
-8.15
-11.54
-14.62
-17.35
-19.89
-22.58
-25.83
-29.87
-34.72
-40.05
-45.39
-50.27
-54.48
-58.18
-61.82
-66.06
-71.55
-78.63
-87.14
-96.27
-104.50
-109.83
-110.20
-104.08
-91.05
-72.02
-49.11
-25.01
-2.31
17.13
32.43
43.54
50.91
55.10
56.61
55.93
53.60
50.29
46.71
43.49
41.01
39.41
38.63
38.60
39.27
40.63
42.63
45.12
47.81
50.30
52.21
53.20
53.11
51.91
49.74
46.87
43.59
40.18
36.85
33.68
30.64
27.63
24.55
21.39
18.24
15.27
12.65
10.47
8.69
7.16
5.63
3.87
1.73
-0.83
-3.72
-6.75
-9.71
-12.44
-14.88
-17.16
-19.53
-22.33
-25.84
-30.18
-35.20
-40.52
-45.67
-50.29
-54.25
-57.80
-61.42
-65.75
-71.35
-78.54
-87.09
-96.16
-104.28
-109.50
-109.88
-104.02
-91.57
-73.46
-51.68
-28.73
-7.02
11.67
26.44
37.12
44.04
47.72
48.75
47.70
45.22
41.96
38.62
35.78
33.82
32.88
32.93
33.79
35.25
37.13
39.30
41.73
44.36
47.10
49.69
51.73
52.76
52.42
50.64
47.74
44.32
41.08
38.55
36.87
35.87
35.15
34.23
32.77
30.58
27.75
24.57
21.58
19.46
18.86
20.25
23.74
28.91
34.90
40.69
45.58
49.52
53.14
57.42
63.08
70.17
78.09
85.93
93.08
99.38
105.02
110.11
114.32
116.97
117.47
115.88
113.02
110.20
108.65
109.01
111.27
114.87
119.00
122.81
125.63
127.16
127.53
127.18
126.60
125.94
124.72
122.00
116.73
108.24
96.57
82.45
66.95
51.22
36.19
22.61
11.02
1.60
-5.87
-12.04
-17.73
-23.46
-29.22
-34.48
-38.59
-41.26
-42.89
-44.41
-46.82
-50.65
-55.58
-60.66
-64.78
-67.28
-68.35
-68.96
-70.39
-73.62
-78.82
-85.26
-91.66
-96.80
-100.14
-102.00
-103.42
-105.46
-108.49
-111.70
-113.34
-111.59
-105.55
-95.96
-84.98
-75.17
-68.32
-64.63
-62.90
-61.47
-59.27
-56.32
-53.52
-51.75
-51.19
-51.06
-50.01
-46.69
-40.24
-30.43
-17.66
-3.03
11.61
23.84
31.02
31.13
23.64
9.79
-7.72
-25.71
-41.66
-54.25
-63.44
-69.89
-74.26
-76.79
-77.22
-75.09
-70.12
-62.44
-52.53
-40.93
-28.03
-14.01
1.02
16.81
32.64
47.45
59.85
68.43
71.98
69.81
61.91
49.05
32.56
14.04
-5.05
-23.68
-41.24
-57.35
-71.58
-83.18
-91.34
-95.35
-94.88
-89.98
-80.93
-67.99
-51.48
-32.08
-11.00
10.01
29.09
44.73
56.10
62.85
64.56
60.45
49.41
30.85
5.48
-24.16
-54.17
-80.34
-99.66
-111.15
-115.84
-115.88
-113.32
-109.06
-102.69
-92.98
-78.94
-60.73
-39.93
-18.98
-0.22
15.15
27.28
37.17
45.47
51.54
53.20
47.46
31.96
6.34
-27.31
-64.87
-101.51
-133.23
-157.65
-174.19
-183.41
-186.28
-183.65
-176.11
-164.51
-150.29
-135.59
-122.95
-114.36
-110.50
-110.35
-111.41
-110.76
-106.18
-96.92
-83.75
-68.38
-52.61
-37.97
-25.70
-17.07
-13.47
-16.04
-24.95
-38.82
-54.70
-68.80
-77.58
-78.99
-73.13
-62.07
-48.70
-35.39
-22.97
-10.69
2.90
18.38
34.60
49.02
59.01
63.50
63.59
61.81
60.49
60.19
59.50
56.22
49.08
38.84
28.24
20.65
18.46
22.08
29.87
38.94
46.32
49.90
48.79
43.19
33.77
21.20
5.78
-12.35
-32.89
-54.99
-77.23
-97.82
-114.72
-125.78
-128.77
-121.71
-103.45
-74.40
-36.94
4.89
46.42
83.53
113.52
135.26
148.78
154.70
153.88
147.52
137.29
125.37
114.08
105.40
100.40
99.12
100.64
103.61
106.69
108.89
109.72
109.19
107.51
104.98
101.82
98.17
94.10
89.81
85.52
81.41
77.37
72.97
67.48
60.17
50.58
38.74
25.20
10.85
-3.32
-16.59
-28.88
-40.91
-54.21
-70.62
-91.59
-117.26
-145.93
-174.22
-197.89
-213.18
-217.96
-212.21
-197.82
-177.72
-154.95
-132.09
-110.99
-92.74
-77.83
-66.16
-57.19
-50.10
-43.99
-38.09
-31.86
-24.95
-17.21
-8.63
0.54
9.88
18.94
27.49
35.70
43.96
52.59
61.44
69.72
76.31
80.21
81.03
79.14
75.47
71.00
66.31
61.48
56.22
50.21
43.40
36.06
28.70
21.87
16.00
11.43
8.40
7.04
7.37
9.15
11.88
14.90
17.56
19.44
20.42
20.64
20.25
19.41
18.13
16.43
14.40
12.23
10.05
7.82
5.25
1.84
-2.84
-9.03
-16.56
-25.06
-33.99
-42.91
-51.57
-59.83
-67.64
-75.06
-82.31
-89.87
-98.34
-108.19
-119.30
-130.59
-140.07
-145.23
-143.83
-134.68
-118.03
-95.62
-70.08
-44.15
-20.06
0.92
18.35
32.41
43.51
52.06
58.40
62.90
65.97
68.09
69.78
71.41
73.18
75.14
77.25
79.49
81.93
84.69
87.79
91.11
94.30
96.89
98.42
98.56
97.25
94.68
91.26
87.41
83.54
79.88
76.51
73.40
70.41
67.46
64.49
61.52
58.56
55.60
52.61
49.55
46.47
43.44
40.58
37.96
35.55
33.19
30.62
27.62
24.05
19.93
15.44
10.82
6.28
1.89
-2.44
-6.91
-11.72
-16.96
-22.48
-27.97
-33.09
-37.64
-41.74
-45.75
-50.30
-56.01
-63.35
-72.32
-82.33
-92.11
-99.81
-103.41
-101.25
-92.56
-77.77
-58.50
-37.05
-15.86
3.15
18.89
31.05
39.90
45.92
49.55
51.13
50.98
49.47
47.15
44.68
42.68
41.65
41.87
43.33
45.87
49.24
53.12
57.19
61.04
64.21
66.27
66.97
66.26
64.37
61.71
58.67
55.61
52.66
49.84
47.08
44.34
41.58
38.80
35.99
33.09
30.02
26.74
23.25
19.65
16.13
12.85
9.82
6.91
3.78
0.10
-4.42
-9.77
-15.74
-21.93
-27.97
-33.57
-38.68
-43.51
-48.49
-54.25
-61.38
-70.24
-80.58
-91.36
-100.72
-106.39
-106.26
-99.11
-85.06
-65.57
-43.02
-20.02
1.24
19.38
33.82
44.58
51.98
56.42
58.34
58.21
56.59
54.13
51.47
49.21
47.71
47.14
47.46
48.53
50.21
52.39
55.03
57.97
60.92
63.42
64.96
65.10
63.68
60.89
57.16
53.06
49.09
45.55
42.46
39.63
36.74
33.55
29.99
26.25
22.63
19.40
16.67
14.27
11.90
9.17
5.85
1.97
-2.21
-6.32
-10.03
-13.25
-16.16
-19.20
-22.85
-27.49
-33.15
-39.54
-46.12
-52.33
-57.81
-62.53
-66.87
-71.47
-77.13
-84.56
-94.07
-105.39
-117.34
-127.92
-134.59
-134.93
-127.42
-112.00
-90.24
-64.91
-39.15
-15.62
4.06
19.45
30.95
39.41
45.62
50.26
53.79
56.58
58.88
60.86
62.57
63.96
64.95
65.54
65.85
66.14
66.73
67.92
69.87
72.46
75.29
77.76
79.21
79.14
77.36
74.11
69.93
65.45
61.19
57.37
53.93
50.69
47.47
44.26
41.16
38.33
35.86
33.73
31.80
29.89
27.81
25.44
22.76
19.89
16.98
14.25
11.81
9.63
7.54
5.23
2.41
-1.09
-5.27
-9.89
-14.55
-18.92
-22.84
-26.44
-30.10
-34.33
-39.38
-45.17
-51.26
-57.00
-61.96
-66.07
-69.72
-73.57
-78.31
-84.41
-92.07
-101.11
-110.95
-120.48
-128.02
-131.50
-128.97
-119.20
-102.16
-79.18
-52.60
-25.12
0.85
23.73
42.79
57.88
69.07
76.40
79.97
80.17
78.00
75.10
73.35
74.44
79.13
87.05
97.05
107.82
118.63
129.50
140.75
152.14
162.35
169.06
170.00
164.42
153.79
141.64
132.07
127.91
129.53
134.94
141.03
145.27
146.80
146.25
144.90
143.66
142.60
141.40
139.89
138.22
136.62
134.79
131.71
126.08
117.15
105.39
92.57
81.11
73.10
69.47
69.80
72.46
75.17
75.54
71.51
61.89
46.81
28.07
8.87
-7.07
-17.04
-20.54
-19.94
-19.54
-23.79
-35.07
-52.32
-71.35
-86.58
-93.61
-91.03
-80.94
-67.64
-55.72
-48.51
-47.45
-52.43
-62.25
-74.52
-85.44
-89.91
-82.97
-61.98
-28.77
9.84
43.94
64.17
65.54
49.38
22.52
-5.84
-27.97
-40.30
-43.74
-42.13
-39.97
-40.68
-45.97
-56.02
-69.81
-85.34
-99.74
-109.57
-111.77
-104.91
-90.10
-71.06
-52.93
-40.59
-37.08
-42.82
-55.97
-73.29
-91.16
-106.57
-117.65
-124.12
-127.16
-128.64
-130.12
-132.02
-133.48
-133.09
-129.72
-122.99
-112.77
-98.56
-79.40
-54.84
-26.49
1.16
21.58
28.75
20.26
-1.21
-28.64
-53.77
-70.67
-78.07
-79.41
-80.66
-87.23
-101.41
-121.27
-141.36
-154.71
-155.09
-138.82
-105.58
-58.38
-3.07
52.46
99.45
130.08
139.61
128.22
101.30
67.80
37.05
15.30
3.85
-0.48
-3.06
-8.45
-18.51
-32.27
-46.82
-58.42
-63.18
-57.50
-39.22
-9.17
27.59
62.12
84.20
86.40
67.53
33.46
-5.21
-37.78
-57.83
-64.89
-63.29
-59.03
-56.93
-59.75
-68.67
-84.32
-106.47
-132.91
-158.58
-176.41
-180.18
-167.80
-143.54
-116.88
-98.65
-96.18
-110.20
-134.97
-161.44
-181.57
-191.28
-191.08
-184.25
-174.33
-163.39
-151.78
-139.05
-125.07
-110.69
-97.19
-85.36
-74.69
-63.32
-48.54
-27.94
-0.75
31.28
63.90
91.96
111.62
122.05
125.46
125.61
125.63
126.56
127.26
125.51
119.67
109.56
96.33
81.80
67.75
55.78
47.45
44.18
46.74
54.55
65.43
76.07
83.38
85.36
81.41
72.10
58.56
42.02
23.60
4.32
-14.86
-32.78
-48.26
-60.27
-68.21
-72.16
-72.92
-71.71
-69.78
-67.99
-66.57
-65.14
-63.08
-59.84
-55.28
-49.74
-43.87
-38.33
-33.45
-29.13
-25.00
-20.68
-16.11
-11.57
-7.60
-4.68
-2.94
-2.02
-1.24
0.01
1.95
4.20
5.99
6.47
5.14
1.93
-2.71
-8.13
-13.79
-19.41
-25.05
-31.02
-37.73
-45.56
-54.70
-65.03
-75.98
-86.54
-95.35
-101.02
-102.35
-98.69
-90.05
-77.07
-60.87
-42.81
-24.24
-6.27
10.28
24.93
37.41
47.55
55.31
60.71
63.95
65.44
65.85
65.90
66.26
67.39
69.50
72.57
76.45
80.88
85.52
90.00
93.86
96.65
98.08
98.06
96.81
94.74
92.27
89.73
87.23
84.69
81.95
78.90
75.58
72.15
68.86
65.98
63.67
61.98
60.75
59.69
58.43
56.66
54.23
51.20
47.70
43.84
39.59
34.79
29.27
23.00
16.15
9.03
2.02
-4.64
-10.83
-16.63
-22.29
-28.19
-34.78
-42.36
-50.90
-59.84
-68.00
-73.87
-75.96
-73.29
-65.75
-54.16
-40.01
-25.04
-10.81
1.63
11.79
19.61
25.22
28.85
30.77
31.31
30.93
30.14
29.36
28.88
28.79
29.06
29.68
30.71
32.22
34.19
36.50
38.88
41.01
42.65
43.65
44.02
43.84
43.23
42.29
41.10
39.71
38.07
36.14
33.84
31.14
28.11
24.88
21.57
18.26
15.02
11.88
8.87
6.00
3.19
0.34
-2.71
-6.03
-9.65
-13.59
-17.95
-22.94
-28.74
-35.40
-42.51
-49.18
-54.15
-56.08
-53.99
-47.62
-37.45
-24.58
-10.42
3.68
16.62
27.71
36.53
42.88
46.65
47.91
46.97
44.40
41.00
37.61
34.90
33.26
32.74
33.18
34.29
35.75
37.31
38.79
39.99
40.78
40.99
40.48
39.10
36.78
33.52
29.47
24.89
20.13
15.49
11.16
7.14
3.27
-0.60
-4.59
-8.62
-12.51
-16.10
-19.32
-22.34
-25.51
-29.27
-34.08
-40.21
-47.73
-56.29
-65.13
-73.04
-78.56
-80.31
-77.37
-69.61
-57.84
-43.53
-28.42
-14.03
-1.29
9.48
18.41
25.78
31.76
36.35
39.49
41.12
41.34
40.44
38.83
36.99
35.39
34.37
34.11
34.61
35.70
37.05
38.35
39.27
39.57
39.06
37.67
35.33
32.16
28.35
24.19
19.99
15.98
12.23
8.58
4.76
0.46
-4.52
-10.12
-16.08
-21.97
-27.40
-32.14
-36.25
-40.17
-44.54
-50.09
-57.38
-66.63
-77.55
-89.19
-100.03
-108.19
-111.86
-109.79
-101.81
-88.91
-73.03
-56.41
-40.89
-27.48
-16.18
-6.41
2.58
11.18
19.33
26.64
32.71
37.41
40.90
43.50
45.52
47.08
48.12
48.56
48.47
48.09
47.79
47.80
48.16
48.57
48.55
47.60
45.35
41.71
36.83
31.14
25.19
19.59
14.78
10.96
7.89
5.00
1.60
-2.94
-8.85
-15.98
-23.80
-31.64
-38.91
-45.22
-50.51
-55.12
-59.71
-65.16
-72.10
-80.59
-89.65
-97.38
-101.31
-99.24
-89.90
-73.49
-51.62
-26.81
-1.81
21.06
40.37
55.70
67.47
76.61
84.18
91.06
97.73
104.26
110.48
116.03
120.50
123.47
124.62
123.88
121.57
118.30
114.81
111.61
108.85
106.22
103.20
99.25
93.98
87.25
79.12
69.91
60.18
50.66
42.08
34.84
28.76
23.12
16.96
9.62
1.15
-7.67
-15.67
-21.71
-25.25
-26.44
-25.99
-24.83
-23.75
-23.25
-23.56
-24.73
-26.68
-29.22
-31.91
-34.10
-35.10
-34.43
-32.17
-28.93
-25.63
-22.97
-21.06
-19.32
-16.84
-12.86
-7.23
-0.54
6.14
11.59
14.87
15.37
12.89
7.57
0.12
-7.83
-13.78
-15.09
-10.21
0.25
13.40
25.02
31.30
30.40
22.91
11.20
-1.84
-13.62
-22.05
-25.10
-20.65
-6.88
16.68
48.30
83.98
118.56
147.28
167.22
177.68
179.77
175.57
167.26
156.63
144.83
132.41
119.18
104.45
87.41
67.70
45.92
23.68
3.10
-13.93
-26.37
-34.38
-39.07
-41.89
-44.02
-46.10
-48.28
-50.55
-53.08
-56.37
-61.05
-67.42
-74.97
-82.24
-87.19
-87.95
-83.70
-75.18
-64.37
-53.65
-44.77
-38.18
-33.22
-28.75
-24.06
-19.26
-15.13
-12.49
-11.65
-12.22
-13.38
-14.38
-15.02
-15.83
-17.74
-21.65
-27.94
-36.21
-45.36
-53.95
-60.71
-65.05
-67.35
-68.89
-71.39
-76.31
-84.26
-94.66
-105.99
-116.44
-124.60
-129.89
-132.42
-132.69
-131.15
-128.08
-123.82
-118.89
-113.98
-109.68
-106.16
-102.96
-99.54
-95.80
-92.58
-91.57
-94.47
-101.62
-111.11
-119.23
-122.23
-118.57
-110.06
-100.97
-95.24
-93.82
-93.72
-89.82
-78.20
-58.67
-34.94
-12.17
6.10
19.57
30.53
41.70
54.42
68.13
81.55
93.98
105.72
117.42
129.03
139.58
147.60
151.97
152.21
148.17
139.52
125.72
106.83
84.39
61.57
42.20
29.08
22.62
20.75
19.88
16.79
9.86
-0.64
-13.21
-26.34
-38.99
-50.48
-59.82
-65.48
-65.75
-59.67
-47.93
-32.99
-18.34
-7.34
-2.07
-2.94
-8.95
-18.17
-28.24
-36.54
-40.46
-37.67
-26.94
-9.00
13.10
34.35
49.17
53.03
43.98
23.16
-5.61
-37.00
-65.67
-87.42
-99.96
-102.93
-97.60
-86.32
-71.80
-56.52
-42.41
-30.54
-21.31
-14.53
-9.68
-6.00
-2.66
1.08
5.64
10.99
16.65
21.80
25.58
27.36
26.95
24.63
21.19
17.69
15.18
14.41
15.64
18.50
22.18
25.74
28.41
29.82
30.07
29.49
28.46
27.18
25.61
23.63
21.13
18.12
14.75
11.23
7.76
4.44
1.35
-1.55
-4.35
-7.18
-10.24
-13.63
-17.40
-21.52
-25.87
-30.33
-34.80
-39.26
-43.77
-48.49
-53.68
-59.64
-66.57
-74.34
-82.34
-89.41
-94.03
-94.69
-90.42
-81.11
-67.59
-51.39
-34.24
-17.67
-2.69
10.20
20.86
29.26
35.40
39.28
41.01
40.84
39.25
36.91
34.54
32.81
32.20
32.85
34.64
37.24
40.29
43.47
46.65
49.73
52.64
55.22
57.22
58.47
58.88
58.57
57.78
56.71
55.41
53.72
51.37
48.12
43.95
39.20
34.44
30.30
27.13
24.90
23.20
21.44
19.17
16.28
12.97
9.62
6.52
3.75
1.17
-1.48
-4.43
-7.82
-11.62
-15.77
-20.12
-24.55
-28.95
-33.32
-37.78
-42.62
-48.19
-54.85
-62.65
-71.19
-79.48
-85.96
-88.88
-86.79
-78.99
-65.92
-49.02
-30.31
-11.82
4.90
18.99
30.17
38.50
44.07
47.00
47.47
45.86
42.81
39.15
35.64
32.90
31.24
30.68
31.09
32.27
34.07
36.40
39.20
42.35
45.58
48.53
50.75
51.85
51.58
49.95
47.22
43.84
40.27
36.90
33.84
30.97
28.01
24.72
20.96
16.88
12.78
8.99
5.71
2.88
0.25
-2.51
-5.72
-9.49
-13.77
-18.35
-22.96
-27.39
-31.52
-35.45
-39.44
-43.90
-49.32
-56.16
-64.62
-74.51
-84.96
-94.41
-100.83
-102.15
-96.90
-84.76
-66.68
-44.77
-21.61
0.37
19.44
34.79
46.29
54.27
59.14
61.29
61.18
59.35
56.52
53.43
50.71
48.72
47.57
47.16
47.38
48.21
49.72
51.93
54.78
57.95
60.93
63.14
64.12
63.62
61.74
58.82
55.31
51.60
47.87
44.08
40.14
35.98
31.73
27.65
23.98
20.80
17.95
15.13
12.00
8.39
4.36
0.09
-4.20
-8.37
-12.51
-16.79
-21.45
-26.63
-32.33
-38.42
-44.66
-50.78
-56.62
-62.16
-67.57
-73.22
-79.68
-87.59
-97.40
-109.02
-121.60
-133.34
-141.80
-144.44
-139.45
-126.27
-105.94
-80.82
-53.90
-28.03
-5.27
13.39
27.88
38.73
46.63
52.30
56.33
59.23
61.42
63.24
64.86
66.32
67.55
68.45
69.03
69.43
69.95
70.92
72.59
74.95
77.69
80.25
81.96
82.31
81.12
78.58
75.13
71.26
67.34
63.55
59.89
56.33
52.83
49.42
46.18
43.21
40.57
38.25
36.12
34.00
31.65
28.91
25.77
22.35
18.91
15.72
12.93
10.52
8.29
5.98
3.32
0.19
-3.38
-7.22
-11.13
-14.97
-18.80
-22.79
-27.21
-32.26
-37.99
-44.23
-50.67
-56.94
-62.76
-68.09
-73.12
-78.28
-84.15
-91.36
-100.36
-111.17
-123.07
-134.44
-142.91
-145.82
-141.13
-128.09
-107.70
-82.41
-55.39
-29.63
-7.15
11.21
25.55
36.45
44.59
50.54
54.76
57.71
59.80
61.38
62.70
63.80
64.66
65.24
65.58
65.84
66.29
67.17
68.67
70.74
73.14
75.41
77.00
77.43
76.47
74.18
70.91
67.17
63.42
59.91
56.65
53.52
50.36
47.11
43.86
40.77
37.97
35.53
33.38
31.42
29.53
27.64
25.72
23.79
21.80
19.67
17.34
14.74
11.96
9.11
6.37
3.81
1.32
-1.37
-4.59
-8.50
-12.96
-17.57
-21.85
-25.49
-28.52
-31.38
-34.60
-38.62
-43.52
-48.97
-54.41
-59.32
-63.47
-66.98
-70.36
-74.36
-79.71
-86.96
-96.18
-106.72
-117.07
-125.03
-128.13
-124.45
-113.20
-95.16
-72.46
-47.97
-24.45
-3.88
12.81
25.56
34.83
41.27
45.48
48.03
49.41
50.05
50.32
50.47
50.64
50.89
51.24
51.73
52.38
53.23
54.33
55.70
57.31
59.02
60.55
61.54
61.60
60.48
58.20
54.99
51.29
47.55
44.12
41.16
38.63
36.38
34.22
32.03
29.78
27.53
25.39
23.45
21.75
20.29
19.03
17.91
16.85
15.76
14.48
12.91
11.01
8.84
6.55
4.34
2.30
0.35
-1.71
-4.05
-6.80
-9.82
-12.90
-15.74
-18.23
-20.47
-22.79
-25.57
-29.16
-33.68
-38.95
-44.59
-50.09
-55.08
-59.37
-63.08
-66.61
-70.52
-75.48
-81.94
-89.96
-98.91
-107.34
-113.22
-114.39
-109.23
-97.29
-79.54
-58.13
-35.73
-14.78
3.05
17.13
27.55
34.85
39.62
42.33
43.41
43.29
42.49
41.53
40.79
40.46
40.48
40.72
41.11
41.73
42.75
44.28
46.24
48.26
49.87
50.61
50.28
48.95
46.93
44.60
42.20
39.85
37.52
35.16
32.77
30.42
28.17
26.03
23.94
21.83
19.64
17.42
15.22
13.15
11.21
9.39
7.63
5.89
4.15
2.41
0.64
-1.25
-3.38
-5.82
-8.58
-11.54
-14.50
-17.29
-19.83
-22.25
-24.77
-27.67
-31.09
-34.95
-39.03
-43.05
-46.81
-50.34
-53.78
-57.45
-61.74
-67.06
-73.68
-81.58
-90.19
-98.26
-103.99
-105.43
-101.13
-90.59
-74.61
-54.99
-34.04
-13.94
3.71
18.07
28.94
36.50
41.11
43.19
43.25
41.86
39.70
37.38
35.43
34.14
33.60
33.70
34.32
35.32
36.69
38.41
40.44
42.61
44.65
46.19
46.97
46.85
45.86
44.19
42.05
39.67
37.22
34.84
32.60
30.51
28.52
26.58
24.61
22.60
20.63
18.75
17.02
15.38
13.70
11.89
9.88
7.74
5.57
3.47
1.48
-0.46
-2.39
-4.38
-6.41
-8.42
-10.37
-12.29
-14.26
-16.39
-18.73
-21.24
-23.77
-26.18
-28.45
-30.65
-32.97
-35.64
-38.85
-42.75
-47.32
-52.34
-57.31
-61.43
-63.73
-63.29
-59.48
-52.21
-41.99
-29.84
-17.08
-4.98
5.40
13.46
19.03
22.32
23.77
23.85
22.91
21.24
19.03
16.52
14.06
12.01
10.70
10.36
11.01
12.53
14.69
17.22
19.86
22.42
24.69
26.50
27.73
28.24
27.97
26.95
25.33
23.35
21.23
19.18
17.23
15.38
13.54
11.66
9.76
7.87
6.00
4.11
2.13
-0.05
-2.47
-5.08
-7.74
-10.33
-12.75
-15.00
-17.22
-19.61
-22.38
-25.62
-29.31
-33.23
-37.14
-40.82
-44.18
-47.30
-50.40
-53.88
-58.20
-63.77
-70.75
-78.81
-86.92
-93.48
-96.63
-94.75
-87.10
-74.04
-56.94
-37.81
-18.70
-1.28
13.43
24.99
33.42
38.97
42.03
43.04
42.47
40.89
38.88
36.98
35.60
34.94
35.05
35.83
37.16
38.89
40.90
43.06
45.17
47.02
48.35
48.96
48.68
47.48
45.45
42.82
39.92
37.05
34.44
32.14
30.03
27.87
25.48
22.77
19.85
16.94
14.24
11.90
9.92
8.13
6.29
4.17
1.65
-1.31
-4.61
-8.13
-11.69
-15.15
-18.42
-21.53
-24.63
-28.01
-31.98
-36.72
-42.20
-48.11
-54.04
-59.59
-64.54
-68.97
-73.30
-78.15
-84.16
-91.80
-100.97
-110.77
-119.47
-124.83
-124.74
-117.87
-104.22
-85.11
-62.82
-39.92
-18.55
-0.12
14.81
26.28
34.70
40.62
44.61
47.22
49.00
50.38
51.64
52.86
53.95
54.77
55.25
55.50
55.75
56.31
57.34
58.81
60.46
61.91
62.84
63.00
62.33
60.87
58.74
56.11
53.20
50.25
47.50
45.06
42.87
40.72
38.30
35.46
32.21
28.83
25.67
23.04
20.98
19.32
17.75
15.97
13.93
11.73
9.57
7.63
5.93
4.34
2.65
0.63
-1.89
-4.97
-8.53
-12.41
-16.39
-20.30
-24.10
-27.91
-31.93
-36.34
-41.19
-46.29
-51.37
-56.14
-60.48
-64.47
-68.43
-72.84
-78.21
-85.04
-93.55
-103.50
-113.86
-122.92
-128.46
-128.42
-121.53
-107.80
-88.57
-66.13
-43.03
-21.45
-2.80
12.36
24.13
32.98
39.55
44.41
48.06
50.86
53.07
54.87
56.38
57.67
58.72
59.49
59.90
60.00
59.93
59.99
60.44
61.41
62.72
63.95
64.59
64.19
62.62
60.02
56.77
53.36
50.11
47.18
44.53
42.04
39.59
37.14
34.71
32.34
30.11
28.06
26.19
24.50
22.88
21.23
19.40
17.29
14.86
12.19
9.46
6.83
4.43
2.23
0.11
-2.12
-4.61
-7.39
-10.40
-13.51
-16.59
-19.58
-22.60
-25.85
-29.58
-33.92
-38.82
-44.01
-49.11
-53.79
-57.93
-61.68
-65.44
-69.73
-75.07
-81.78
-89.81
-98.57
-106.87
-112.98
-115.02
-111.47
-101.64
-86.02
-66.21
-44.47
-23.09
-3.86
12.18
24.74
34.01
40.33
44.14
45.86
46.00
45.10
43.72
42.37
41.38
40.92
41.06
41.76
43.02
44.82
47.08
49.64
52.22
54.47
56.02
56.57
56.00
54.40
52.00
49.13
46.11
43.20
40.52
38.03
35.61
33.07
30.29
27.20
23.95
20.72
17.78
15.30
13.29
11.63
10.05
8.28
6.09
3.41
0.30
-3.01
-6.29
-9.32
-12.07
-14.66
-17.31
-20.22
-23.46
-26.95
-30.49
-33.93
-37.23
-40.59
-44.37
-49.00
-54.87
-62.16
-70.70
-79.84
-88.35
-94.61
-96.86
-93.68
-84.50
-69.86
-51.30
-30.97
-11.09
6.65
21.27
32.53
40.62
45.90
48.71
49.34
48.13
45.54
42.20
38.78
35.87
33.88
32.97
33.16
34.34
36.36
39.03
42.11
45.23
47.97
49.95
50.92
50.80
49.68
47.77
45.30
42.48
39.49
36.42
33.33
30.20
27.04
23.86
20.76
17.83
15.15
12.71
10.35
7.91
5.17
2.08
-1.33
-4.90
-8.45
-11.87
-15.21
-18.65
-22.48
-26.92
-32.02
-37.63
-43.40
-48.93
-54.05
-58.87
-63.87
-69.74
-77.14
-86.35
-96.97
-107.84
-117.03
-122.30
-121.69
-114.10
-99.74
-80.12
-57.63
-34.82
-13.82
4.10
18.54
29.73
38.17
44.38
48.78
51.74
53.59
54.65
55.24
55.56
55.72
55.72
55.58
55.40
55.41
55.86
56.94
58.63
60.67
62.62
63.97
64.34
63.51
61.51
58.57
55.10
51.51
48.17
45.21
42.57
40.04
37.34
34.33
31.10
27.80
24.66
21.78
19.13
16.58
14.02
11.43
8.86
6.41
4.11
1.86
-0.53
-3.31
-6.62
-10.48
-14.65
-18.81
-22.61
-25.88
-28.72
-31.50
-34.68
-38.67
-43.61
-49.32
-55.37
-61.27
-66.67
-71.50
-76.03
-80.83
-86.59
-93.98
-103.31
-114.25
-125.62
-135.41
-141.12
-140.48
-132.17
-116.36
-94.69
-69.82
-44.64
-21.56
-1.99
13.64
25.65
34.75
41.66
46.97
51.09
54.29
56.78
58.72
60.26
61.48
62.35
62.88
63.08
63.14
63.38
64.11
65.52
67.49
69.60
71.27
71.99
71.52
69.87
67.34
64.26
60.92
57.49
54.09
50.79
47.65
44.70
41.90
39.15
36.37
33.56
30.85
28.42
26.38
24.70
23.17
21.48
19.41
16.89
14.06
11.17
8.50
6.16
4.08
2.03
-0.29
-3.13
-6.60
-10.67
-15.12
-19.67
-24.01
-27.91
-31.34
-34.47
-37.68
-41.35
-45.76
-50.88
-56.41
-61.86
-66.81
-71.09
-74.90
-78.79
-83.54
-89.88
-98.16
-108.07
-118.46
-127.35
-132.35
-131.26
-122.83
-107.18
-85.89
-61.55
-37.03
-14.72
3.93
18.49
29.33
37.21
42.98
47.34
50.81
53.70
56.18
58.29
59.94
61.01
61.38
61.08
60.29
59.37
58.72
58.69
59.39
60.63
61.99
62.87
62.81
61.55
59.16
56.02
52.61
49.37
46.53
44.08
41.85
39.63
37.25
34.67
31.91
29.07
26.28
23.66
21.36
19.46
17.87
16.40
14.75
12.65
10.02
7.04
4.02
1.30
-0.98
-2.93
-4.87
-7.13
-9.95
-13.30
-16.97
-20.72
-24.33
-27.77
-31.20
-34.83
-38.83
-43.28
-48.05
-52.88
-57.53
-61.81
-65.73
-69.55
-73.71
-78.75
-85.14
-93.07
-102.16
-111.36
-118.95
-122.90
-121.36
-113.27
-98.74
-79.12
-56.64
-33.79
-12.70
5.22
19.37
29.83
37.04
41.63
44.15
45.10
44.91
43.93
42.56
41.16
40.09
39.60
39.81
40.71
42.20
44.16
46.48
49.04
51.70
54.16
56.09
57.13
57.07
55.89
53.79
51.12
48.31
45.66
43.29
41.13
38.96
36.52
33.71
30.56
27.27
24.10
21.29
18.93
16.92
15.04
13.02
10.60
7.68
4.33
0.78
-2.68
-5.86
-8.73
-11.46
-14.37
-17.75
-21.73
-26.24
-31.02
-35.79
-40.32
-44.62
-48.86
-53.43
-58.80
-65.44
-73.52
-82.76
-92.15
-100.01
-104.28
-103.04
-95.25
-81.06
-61.96
-40.30
-18.66
0.86
17.05
29.53
38.53
44.47
47.77
48.72
47.70
45.25
42.09
39.01
36.61
35.19
34.69
34.88
35.53
36.55
38.01
40.03
42.57
45.41
48.10
50.13
51.07
50.74
49.21
46.77
43.87
40.90
38.15
35.70
33.43
31.12
28.57
25.70
22.58
19.42
16.42
13.73
11.33
9.07
6.73
4.09
1.04
-2.40
-6.08
-9.77
-13.28
-16.57
-19.73
-23.00
-26.66
-30.86
-35.61
-40.71
-45.87
-50.81
-55.41
-59.76
-64.25
-69.40
-75.80
-83.90
-93.67
-104.43
-114.69
-122.27
-124.90
-120.76
-109.26
-91.26
-68.85
-44.78
-21.65
-1.35
15.19
27.86
36.99
43.15
46.97
49.11
50.26
51.06
51.88
52.83
53.70
54.17
54.05
53.40
52.61
52.21
52.64
54.06
56.28
58.85
61.19
62.79
63.31
62.64
60.88
58.30
55.24
52.01
48.81
45.67
42.53
39.32
36.06
32.86
29.92
27.38
25.28
23.53
21.91
20.21
18.24
15.94
13.36
10.64
8.01
5.61
3.47
1.43
-0.82
-3.58
-7.05
-11.13
-15.54
-19.92
-24.07
-28.02
-32.02
-36.39
-41.34
-46.77
-52.36
-57.65
-62.32
-66.29
-69.82
-73.43
-77.81
-83.60
-91.24
-100.67
-111.10
-120.95
-128.00
-129.91
-124.93
-112.53
-93.72
-70.77
-46.55
-23.68
-3.91
12.12
24.60
34.18
41.46
46.88
50.68
53.04
54.20
54.52
54.39
54.14
53.98
53.98
54.12
54.43
54.99
55.93
57.35
59.22
61.30
63.18
64.38
64.55
63.60
61.68
59.14
56.33
53.55
50.93
48.42
45.89
43.15
40.12
36.79
33.33
29.97
26.96
24.46
22.43
20.69
18.98
17.08
14.88
12.44
9.92
7.46
5.12
2.88
0.62
-1.81
-4.52
-7.55
-10.81
-14.15
-17.37
-20.33
-23.01
-25.56
-28.29
-31.53
-35.49
-40.13
-45.18
-50.21
-54.83
-58.84
-62.36
-65.74
-69.55
-74.43
-80.92
-89.21
-98.92
-108.85
-117.07
-121.28
-119.46
-110.57
-94.95
-74.32
-51.21
-28.28
-7.60
9.62
23.03
32.89
39.73
44.12
46.57
47.52
47.38
46.57
45.52
44.60
44.05
43.96
44.30
44.95
45.83
46.94
48.36
50.11
52.09
54.00
55.43
55.98
55.45
53.89
51.56
48.87
46.15
43.60
41.24
38.96
36.60
34.06
31.40
28.72
26.22
24.01
22.14
20.51
18.96
17.30
15.43
13.33
11.11
8.88
6.74
4.68
2.65
0.50
-1.87
-4.54
-7.45
-10.50
-13.53
-16.44
-19.21
-21.92
-24.76
-27.93
-31.56
-35.64
-40.03
-44.46
-48.66
-52.42
-55.72
-58.80
-62.09
-66.21
-71.69
-78.75
-87.03
-95.44
-102.35
-105.85
-104.31
-96.82
-83.52
-65.62
-45.10
-24.22
-5.05
11.02
23.32
31.88
37.16
39.76
40.30
39.30
37.31
34.86
32.47
30.58
29.49
29.28
29.91
31.28
33.31
35.90
38.95
42.23
45.40
47.99
49.57
49.83
48.75
46.55
43.63
40.45
37.39
34.62
32.11
29.69
27.18
24.45
21.53
18.58
15.86
13.58
11.85
10.59
9.52
8.29
6.52
4.04
0.94
-2.44
-5.65
-8.39
-10.65
-12.75
-15.19
-18.41
-22.49
-27.18
-32.00
-36.56
-40.71
-44.64
-48.79
-53.63
-59.51
-66.62
-74.82
-83.59
-91.85
-98.03
-100.34
-97.24
-88.03
-73.21
-54.39
-33.81
-13.73
4.18
18.96
30.34
38.44
43.53
45.92
46.05
44.50
41.93
39.08
36.53
34.64
33.58
33.35
33.84
34.98
36.69
38.88
41.44
44.19
46.88
49.16
50.67
51.14
50.42
48.59
45.92
42.80
39.59
36.48
33.47
30.39
27.06
23.38
19.51
15.72
12.38
9.73
7.77
6.27
4.85
3.12
0.83
-2.06
-5.40
-8.92
-12.35
-15.53
-18.50
-21.48
-24.81
-28.72
-33.29
-38.35
-43.57
-48.62
-53.32
-57.73
-62.14
-67.03
-72.98
-80.49
-89.84
-100.68
-111.88
-121.44
-126.94
-126.12
-117.77
-102.13
-80.95
-56.88
-32.75
-10.82
7.58
22.03
32.78
40.44
45.74
49.36
51.91
53.79
55.21
56.23
56.82
57.04
56.98
56.82
56.78
57.02
57.68
58.82
60.43
62.30
64.10
65.32
65.52
64.41
62.06
58.88
55.42
52.18
49.41
47.00
44.66
42.04
38.99
35.61
32.21
29.18
26.77
24.96
23.50
22.02
20.20
17.97
15.46
12.95
10.68
8.69
6.88
4.99
2.79
0.12
-3.03
-6.63
-10.52
-14.57
-18.64
-22.63
-26.57
-30.60
-34.97
-39.88
-45.40
-51.35
-57.40
-63.15
-68.38
-73.14
-77.81
-83.07
-89.66
-98.15
-108.58
-120.17
-131.25
-139.43
-142.18
-137.60
-125.07
-105.52
-81.28
-55.36
-30.58
-8.97
8.57
22.10
32.28
39.91
45.67
50.08
53.45
56.04
58.05
59.59
60.68
61.29
61.39
61.06
60.55
60.22
60.45
61.41
62.98
64.80
66.35
67.16
66.95
65.71
63.61
60.90
57.82
54.58
51.36
48.26
45.38
42.66
40.03
37.39
34.71
32.10
29.74
27.78
26.26
25.06
23.89
22.49
20.66
18.41
15.91
13.35
10.88
8.50
6.05
3.34
0.18
-3.48
-7.54
-11.78
-15.93
-19.81
-23.40
-26.88
-30.55
-34.70
-39.47
-44.79
-50.36
-55.77
-60.70
-64.99
-68.79
-72.49
-76.69
-82.08
-89.27
-98.53
-109.45
-120.81
-130.51
-136.06
-135.22
-126.73
-110.81
-89.17
-64.52
-39.78
-17.37
1.33
15.94
26.91
35.07
41.19
45.84
49.30
51.66
53.00
53.48
53.36
52.93
52.44
52.07
51.92
52.10
52.75
54.00
55.83
58.01
60.10
61.63
62.21
61.70
60.24
58.11
55.63
53.04
50.44
47.86
45.23
42.47
39.57
36.58
33.64
30.92
28.52
26.39
24.39
22.32
20.07
17.68
15.28
13.02
10.96
9.05
7.15
5.16
2.94
0.46
-2.32
-5.31
-8.40
-11.41
-14.25
-16.98
-19.81
-23.08
-27.07
-31.81
-37.07
-42.41
-47.37
-51.68
-55.44
-59.04
-63.15
-68.44
-75.41
-84.11
-93.94
-103.58
-111.18
-114.65
-112.27
-103.24
-87.99
-68.12
-45.95
-23.93
-4.03
12.59
25.53
34.92
41.13
44.61
45.81
45.22
43.42
41.00
38.53
36.48
35.19
34.84
35.45
36.90
39.01
41.58
44.45
47.47
50.47
53.17
55.17
56.06
55.57
53.70
50.79
47.32
43.78
40.46
37.43
34.57
31.70
28.74
25.68
22.66
19.85
17.41
15.42
13.83
12.46
10.98
9.07
6.52
3.37
-0.13
-3.62
-6.83
-9.75
-12.66
-16.00
-20.10
-25.01
-30.42
-35.87
-40.92
-45.39
-49.40
-53.32
-57.66
-62.91
-69.46
-77.42
-86.36
-95.19
-102.16
-105.23
-102.62
-93.48
-78.22
-58.44
-36.45
-14.65
5.08
21.57
34.38
43.57
49.49
52.61
53.48
52.67
50.76
48.30
45.78
43.57
41.94
41.10
41.16
42.10
43.86
46.28
49.12
52.09
54.88
57.12
58.47
58.62
57.52
55.29
52.28
48.95
45.67
42.61
39.73
36.86
33.80
30.49
26.91
23.14
19.27
15.42
11.73
8.43
5.65
3.42
1.55
-0.29
-2.52
-5.42
-9.02
-13.12
-17.34
-21.33
-24.91
-28.16
-31.39
-35.02
-39.34
-44.41
-49.97
-55.57
-60.79
-65.43
-69.62
-73.83
-78.74
-85.07
-93.35
-103.62
-115.19
-126.44
-135.04
-138.37
-134.33
-122.13
-102.63
-78.14
-51.81
-26.63
-4.77
12.81
26.14
35.92
43.06
48.39
52.51
55.82
58.52
60.67
62.22
63.10
63.30
62.91
62.10
61.19
60.53
60.46
61.21
62.79
64.94
67.17
68.87
69.50
68.77
66.75
63.77
60.31
56.82
53.53
50.51
47.65
44.80
41.85
38.74
35.53
32.33
29.30
26.64
24.47
22.80
21.51
20.32
18.91
17.06
14.67
11.86
8.89
6.01
3.45
1.24
-0.74
-2.75
-5.05
-7.82
-11.05
-14.60
-18.25
-21.87
-25.42
-29.05
-33.01
-37.52
-42.68
-48.38
-54.30
-60.00
-65.16
-69.63
-73.71
-78.02
-83.42
-90.66
-100.02
-110.94
-121.95
-130.83
-135.13
-132.86
-123.07
-106.23
-84.11
-59.37
-34.79
-12.64
5.75
20.07
30.71
38.42
43.95
47.89
50.68
52.69
54.26
55.73
57.25
58.80
60.15
61.04
61.33
61.18
60.96
61.14
61.99
63.41
64.96
66.03
66.10
64.95
62.73
59.81
56.62
53.47
50.50
47.70
44.93
42.07
39.03
35.83
32.58
29.48
26.75
24.57
22.95
21.74
20.63
19.25
17.40
15.02
12.28
9.50
6.94
4.79
3.03
1.48
-0.17
-2.24
-4.91
-8.18
-11.88
-15.69
-19.35
-22.76
-26.06
-29.54
-33.50
-38.10
-43.25
-48.66
-53.95
-58.81
-63.14
-67.14
-71.26
-76.16
-82.47
-90.52
-99.99
-109.76
-117.97
-122.44
-121.26
-113.40
-99.05
-79.66
-57.45
-34.89
-14.03
3.79
18.01
28.71
36.32
41.38
44.46
46.04
46.58
46.41
45.84
45.09
44.39
43.91
43.78
44.10
44.88
46.10
47.69
49.55
51.50
53.26
54.49
54.88
54.28
52.73
50.49
47.92
45.36
42.96
40.74
38.54
36.20
33.67
30.98
28.31
25.84
23.71
21.88
20.23
18.58
16.77
14.78
12.69
10.64
8.69
6.77
4.74
2.42
-0.28
-3.30
-6.46
-9.53
-12.35
-14.93
-17.50
-20.36
-23.77
-27.83
-32.39
-37.09
-41.57
-45.54
-49.02
-52.25
-55.77
-60.17
-65.97
-73.31
-81.80
-90.37
-97.38
-100.88
-99.24
-91.55
-78.02
-59.96
-39.45
-18.78
0.12
15.99
28.29
37.04
42.59
45.38
45.94
44.82
42.64
40.01
37.43
35.29
33.75
32.91
32.80
33.44
34.82
36.91
39.55
42.47
45.33
47.73
49.30
49.79
49.10
47.35
44.80
41.87
38.92
36.16
33.60
31.08
28.39
25.39
22.10
18.69
15.39
12.44
9.97
7.95
6.24
4.65
2.95
0.96
-1.41
-4.17
-7.21
-10.36
-13.48
-16.51
-19.57
-22.90
-26.73
-31.20
-36.22
-41.51
-46.65
-51.28
-55.28
-58.90
-62.69
-67.43
-73.84
-82.20
-92.12
-102.30
-110.76
-115.19
-113.62
-105.08
-89.96
-69.93
-47.48
-25.18
-5.08
11.67
24.73
34.32
40.89
44.94
46.95
47.47
47.07
46.29
45.48
44.82
44.29
43.85
43.52
43.42
43.73
44.62
46.15
48.20
50.48
52.57
54.04
54.53
53.91
52.26
49.89
47.15
44.35
41.62
38.97
36.30
33.56
30.74
27.93
25.22
22.71
20.40
18.27
16.27
14.35
12.54
10.84
9.29
7.83
6.29
4.42
1.99
-1.12
-4.83
-8.84
-12.77
-16.35
-19.54
-22.61
-25.95
-29.91
-34.65
-40.05
-45.78
-51.48
-56.87
-61.85
-66.50
-71.11
-76.11
-82.02
-89.31
-98.09
-107.79
-116.98
-123.50
-125.00
-119.75
-107.27
-88.63
-66.12
-42.55
-20.39
-1.29
14.10
25.88
34.51
40.56
44.54
46.97
48.31
48.99
49.33
49.57
49.85
50.22
50.73
51.40
52.25
53.36
54.77
56.50
58.46
60.41
61.94
62.65
62.27
60.74
58.27
55.26
52.10
49.07
46.28
43.70
41.19
38.60
35.85
32.91
29.89
26.94
24.21
21.85
19.87
18.21
16.69
15.13
13.37
11.39
9.28
7.27
5.51
4.04
2.71
1.16
-0.96
-3.85
-7.46
-11.48
-15.53
-19.33
-22.91
-26.49
-30.39
-34.82
-39.77
-45.00
-50.18
-55.03
-59.46
-63.57
-67.62
-72.02
-77.24
-83.73
-91.78
-101.20
-111.10
-119.75
-124.97
-124.58
-117.21
-102.86
-82.93
-59.91
-36.57
-15.24
2.67
16.76
27.34
35.01
40.40
44.01
46.28
47.62
48.42
49.02
49.58
50.09
50.47
50.65
50.69
50.85
51.44
52.71
54.68
57.10
59.54
61.43
62.30
61.94
60.38
57.91
54.95
51.91
49.04
46.40
43.85
41.18
38.25
35.02
31.67
28.44
25.53
23.04
20.94
19.08
17.25
15.29
13.11
10.74
8.30
5.97
3.86
2.02
0.32
-1.48
-3.63
-6.31
-9.47
-12.90
-16.29
-19.44
-22.31
-25.10
-28.17
-31.79
-36.09
-40.96
-46.11
-51.19
-55.93
-60.20
-64.11
-68.02
-72.48
-78.13
-85.40
-94.23
-103.75
-112.28
-117.59
-117.52
-110.75
-97.26
-78.40
-56.50
-34.16
-13.54
4.05
18.09
28.74
36.41
41.55
44.66
46.21
46.74
46.77
46.68
46.68
46.79
46.93
47.05
47.18
47.44
48.07
49.22
50.94
53.06
55.23
56.99
57.93
57.77
56.55
54.49
51.95
49.23
46.49
43.75
40.94
38.00
34.92
31.77
28.64
25.59
22.71
20.06
17.73
15.72
13.98
12.34
10.66
8.79
6.72
4.52
2.29
0.07
-2.14
-4.42
-6.83
-9.35
-11.98
-14.65
-17.43
-20.44
-23.90
-27.98
-32.68
-37.81
-43.01
-47.84
-52.03
-55.54
-58.65
-61.93
-66.03
-71.53
-78.71
-87.35
-96.65
-105.16
-111.07
-112.57
-108.30
-97.89
-82.04
-62.47
-41.39
-21.03
-3.07
11.57
22.62
30.38
35.32
38.03
39.03
38.78
37.73
36.27
34.81
33.67
33.08
33.14
33.89
35.26
37.20
39.59
42.33
45.18
47.81
49.86
50.98
50.97
49.84
47.74
45.01
41.98
38.94
36.10
33.55
31.27
29.14
26.98
24.63
22.02
19.22
16.40
13.82
11.71
10.16
9.08
8.19
7.13
5.62
3.55
1.05
-1.59
-4.05
-6.21
-8.19
-10.31
-12.98
-16.42
-20.58
-25.15
-29.70
-33.88
-37.57
-40.90
-44.15
-47.70
-51.90
-57.06
-63.33
-70.56
-78.08
-84.66
-88.63
-88.34
-82.72
-71.76
-56.52
-38.86
-20.80
-4.00
10.52
22.34
31.41
37.80
41.62
43.01
42.29
40.00
36.81
33.42
30.43
28.25
27.11
27.09
28.17
30.19
32.91
36.02
39.17
42.03
44.36
45.95
46.70
46.53
45.39
43.35
40.60
37.44
34.19
31.08
28.15
25.28
22.23
18.82
14.99
10.89
6.74
2.83
-0.63
-3.57
-6.09
-8.39
-10.80
-13.63
-17.09
-21.21
-25.83
-30.63
-35.27
-39.53
-43.47
-47.38
-51.73
-57.03
-63.66
-71.57
-80.17
-88.24
-94.09
-95.93
-92.37
-82.93
-68.23
-49.85
-29.96
-10.65
6.45
20.44
31.12
38.69
43.60
46.35
47.40
47.20
46.17
44.68
43.08
41.62
40.52
39.92
39.93
40.61
41.90
43.65
45.61
47.46
48.90
49.70
49.70
48.83
47.10
44.59
41.41
37.73
33.75
29.71
25.82
22.25
19.07
16.25
13.70
11.23
8.65
5.83
2.75
-0.52
-3.80
-6.95
-9.96
-12.99
-16.34
-20.28
-24.98
-30.38
-36.23
-42.17
-47.90
-53.24
-58.27
-63.26
-68.69
-75.19
-83.30
-93.26
-104.68
-116.29
-126.02
-131.43
-130.40
-121.88
-106.37
-85.74
-62.74
-40.09
-19.85
-3.02
10.35
20.83
29.22
36.22
42.34
47.80
52.69
56.94
60.49
63.33
65.57
67.46
69.39
71.78
74.96
79.02
83.68
88.39
92.35
94.86
95.43
94.00
90.86
86.56
81.71
76.79
72.10
67.78
63.76
59.89
55.91
51.56
46.61
40.92
34.51
27.53
20.27
13.08
6.28
0.12
-5.36
-10.28
-14.92
-19.58
-24.41
-29.42
-34.37
-38.91
-42.75
-45.84
-48.43
-51.10
-54.64
-59.76
-66.90
-75.90
-85.84
-95.13
-101.73
-103.74
-99.99
-90.38
-76.05
-58.96
-41.36
-25.15
-11.45
-0.56
7.87
14.46
19.83
24.37
28.28
31.60
34.28
36.29
37.61
38.27
38.35
38.03
37.53
37.15
37.15
37.74
38.92
40.51
42.18
43.54
44.22
44.01
42.87
40.94
38.44
35.64
32.79
30.01
27.35
24.76
22.14
19.39
16.38
13.01
9.17
4.83
0.08
-4.89
-9.74
-14.18
-18.03
-21.31
-24.32
-27.51
-31.28
-35.86
-41.23
-47.16
-53.29
-59.34
-65.18
-70.82
-76.47
-82.38
-88.87
-96.14
-104.18
-112.49
-120.00
-125.15
-126.19
-121.72
-111.26
-95.42
-75.84
-54.70
-34.15
-15.81
-0.51
11.59
20.87
27.86
33.02
36.71
39.20
40.70
41.55
42.15
42.90
44.12
45.92
48.21
50.74
53.23
55.45
57.29
58.72
59.76
60.39
60.54
60.11
58.98
57.11
54.58
51.63
48.56
45.60
42.87
40.29
37.66
34.76
31.46
27.80
23.86
19.80
15.72
11.67
7.64
3.56
-0.67
-5.16
-10.01
-15.27
-20.87
-26.66
-32.43
-38.05
-43.52
-49.05
-55.00
-61.83
-69.92
-79.42
-90.01
-100.77
-110.14
-116.18
-117.03
-111.51
-99.57
-82.42
-62.16
-41.21
-21.67
-4.77
9.06
20.04
28.65
35.29
40.27
43.74
45.86
46.85
47.00
46.61
46.01
45.48
45.22
45.33
45.82
46.66
47.73
48.91
50.05
50.93
51.27
50.77
49.21
46.53
42.97
38.90
34.80
30.94
27.38
23.93
20.34
16.44
12.27
8.09
4.22
0.88
-1.96
-4.56
-7.35
-10.69
-14.75
-19.43
-24.40
-29.28
-33.79
-37.91
-41.85
-46.03
-50.97
-57.11
-64.72
-73.69
-83.47
-92.90
-100.36
-104.03
-102.40
-94.76
-81.54
-64.15
-44.62
-25.00
-6.91
8.69
21.41
31.19
38.12
42.34
44.07
43.72
41.88
39.29
36.66
34.57
33.34
33.02
33.48
34.51
35.89
37.49
39.28
41.22
43.18
44.90
45.92
45.73
43.98
40.58
35.82
30.26
24.54
19.08
13.99
9.08
4.02
-1.41
-7.15
-12.93
-18.36
-23.21
-27.45
-31.35
-35.32
-39.89
-45.59
-52.74
-61.39
-71.07
-80.66
-88.53
-92.81
-91.91
-85.03
-72.42
-55.39
-35.86
-15.85
2.97
19.49
33.12
43.62
50.90
55.02
56.23
55.07
52.35
49.03
45.96
43.71
42.51
42.29
42.86
44.04
45.75
47.87
50.17
52.21
53.44
53.31
51.48
47.91
42.90
36.98
30.72
24.58
18.76
13.24
7.83
2.32
-3.35
-9.11
-14.71
-19.90
-24.59
-28.92
-33.34
-38.46
-44.89
-52.98
-62.61
-73.00
-82.77
-90.12
-93.18
-90.57
-81.80
-67.47
-49.17
-29.05
-9.26
8.59
23.66
35.80
45.29
52.47
57.59
60.72
61.90
61.31
59.35
56.62
53.76
51.26
49.42
48.30
47.85
47.96
48.53
49.46
50.55
51.50
51.90
51.29
49.24
45.53
40.18
33.54
26.21
18.87
12.10
6.13
0.80
-4.36
-9.88
-16.09
-22.95
-30.09
-36.98
-43.15
-48.42
-52.97
-57.32
-62.18
-68.33
-76.43
-86.69
-98.65
-110.96
-121.45
-127.54
-126.98
-118.62
-102.81
-81.44
-57.31
-33.29
-11.55
6.95
22.24
35.01
45.95
55.42
63.36
69.45
73.44
75.30
75.33
74.02
71.91
69.46
66.99
64.78
63.05
62.00
61.72
62.14
62.94
63.58
63.49
62.12
59.19
54.70
48.95
42.44
35.71
29.22
23.24
17.80
12.69
7.64
2.37
-3.27
-9.31
-15.61
-21.96
-28.13
-33.93
-39.30
-44.34
-49.39
-54.99
-61.81
-70.47
-81.21
-93.60
-106.30
-117.19
-123.70
-123.57
-115.61
-100.10
-78.91
-54.80
-30.70
-8.83
9.71
24.79
36.90
46.61
54.30
60.05
63.80
65.53
65.38
63.65
60.75
57.16
53.36
49.81
46.88
44.82
43.79
43.76
44.52
45.77
47.07
47.93
47.92
46.72
44.16
40.26
35.22
29.41
23.26
17.18
11.50
6.29
1.43
-3.38
-8.43
-13.90
-19.73
-25.68
-31.40
-36.63
-41.30
-45.64
-50.08
-55.20
-61.60
-69.81
-80.07
-92.10
-104.83
-116.36
-124.25
-126.17
-120.60
-107.50
-88.35
-65.71
-42.42
-20.73
-1.86
13.99
27.26
38.58
48.39
56.86
63.91
69.40
73.23
75.43
76.16
75.72
74.48
72.84
71.22
69.98
69.38
69.59
70.55
71.97
73.33
74.01
73.48
71.44
67.97
63.49
58.59
53.82
49.47
45.52
41.75
37.92
33.94
29.91
26.03
22.42
19.06
15.72
12.18
8.28
4.03
-0.42
-4.86
-9.13
-13.20
-17.15
-21.20
-25.57
-30.46
-35.90
-41.72
-47.61
-53.20
-58.28
-62.91
-67.52
-72.80
-79.49
-88.07
-98.34
-109.26
-118.89
-124.79
-124.64
-117.10
-102.23
-81.66
-58.08
-34.40
-12.96
5.01
19.40
30.83
40.13
47.92
54.46
59.74
63.66
66.18
67.41
67.56
66.90
65.70
64.19
62.65
61.39
60.72
60.85
61.84
63.45
65.24
66.58
66.91
65.88
63.45
59.96
55.91
51.85
48.14
44.89
41.95
39.14
36.29
33.35
30.37
27.50
24.83
22.45
20.36
18.51
16.78
15.05
13.21
11.21
9.10
7.00
5.03
3.26
1.63
-0.04
-2.00
-4.44
-7.41
-10.78
-14.27
-17.58
-20.51
-23.10
-25.60
-28.40
-31.85
-36.13
-41.13
-46.49
-51.75
-56.53
-60.69
-64.41
-68.16
-72.60
-78.38
-85.87
-94.89
-104.48
-112.87
-117.82
-117.22
-109.80
-95.61
-76.09
-53.67
-31.08
-10.62
6.29
19.21
28.48
34.86
39.18
42.15
44.18
45.49
46.16
46.29
46.03
45.59
45.12
44.70
44.36
44.19
44.35
45.05
46.41
48.27
50.21
51.63
52.01
51.09
48.95
45.96
42.56
39.14
35.88
32.78
29.72
26.55
23.24
19.85
16.55
13.54
10.94
8.72
6.73
4.74
2.56
0.08
-2.68
-5.60
-8.56
-11.48
-14.45
-17.63
-21.25
-25.46
-30.20
-35.19
-40.02
-44.33
-47.97
-51.14
-54.33
-58.22
-63.46
-70.36
-78.69
-87.52
-95.30
-100.08
-100.10
-94.26
-82.57
-66.17
-47.05
-27.49
-9.43
5.82
17.82
26.70
32.94
37.06
39.59
40.93
41.41
41.31
40.84
40.16
39.41
38.74
38.32
38.32
38.89
40.06
41.79
43.89
46.08
47.96
49.17
49.40
48.54
46.67
44.04
40.98
37.76
34.56
31.49
28.61
25.98
23.65
21.61
19.82
18.15
16.47
14.73
12.95
11.18
9.48
7.85
6.21
4.44
2.42
0.09
-2.52
-5.32
-8.16
-10.95
-13.64
-16.27
-18.96
-21.86
-25.15
-28.92
-33.16
-37.71
-42.28
-46.53
-50.20
-53.30
-56.11
-59.20
-63.25
-68.75
-75.80
-83.89
-91.86
-98.08
-100.80
-98.58
-90.74
-77.56
-60.31
-40.89
-21.37
-3.54
11.41
22.98
31.18
36.40
39.10
39.79
38.96
37.09
34.69
32.26
30.21
28.87
28.38
28.79
30.06
32.11
34.77
37.83
40.95
43.74
45.83
46.94
46.93
45.88
43.95
41.38
38.35
35.01
31.51
27.94
24.48
21.28
18.44
15.98
13.80
11.72
9.57
7.22
4.66
1.97
-0.71
-3.32
-5.86
-8.46
-11.32
-14.64
-18.52
-22.88
-27.51
-32.10
-36.38
-40.19
-43.63
-47.03
-50.90
-55.80
-62.11
-69.75
-78.02
-85.52
-90.36
-90.67
-85.20
-73.70
-57.16
-37.42
-16.79
2.64
19.31
32.43
41.84
47.80
50.76
51.27
49.88
47.16
43.69
40.05
36.76
34.26
32.83
32.58
33.39
35.03
37.21
39.65
42.13
44.46
46.44
47.81
48.34
47.83
46.25
43.79
40.75
37.44
34.11
30.83
27.54
24.19
20.79
17.47
14.34
11.48
8.79
6.09
3.20
-0.01
-3.44
-6.90
-10.21
-13.30
-16.33
-19.59
-23.36
-27.80
-32.83
-38.15
-43.44
-48.43
-53.06
-57.45
-61.88
-66.81
-72.68
-79.91
-88.59
-98.23
-107.60
-114.77
-117.58
-114.25
-103.99
-87.40
-66.32
-43.31
-20.99
-1.35
14.56
26.57
35.14
41.03
44.96
47.51
49.08
49.96
50.37
50.46
50.27
49.82
49.16
48.37
47.74
47.59
48.20
49.66
51.76
54.05
55.95
56.98
56.90
55.74
53.75
51.25
48.49
45.63
42.72
39.76
36.77
33.78
30.86
28.10
25.51
23.10
20.82
18.63
16.49
14.37
12.28
10.25
8.28
6.33
4.35
2.22
-0.20
-3.01
-6.19
-9.61
-13.07
-16.36
-19.38
-22.25
-25.29
-28.84
-33.17
-38.28
-43.86
-49.46
-54.65
-59.22
-63.29
-67.26
-71.73
-77.31
-84.42
-93.07
-102.60
-111.65
-118.30
-120.48
-116.57
-105.96
-89.29
-68.36
-45.60
-23.48
-3.91
12.04
24.15
32.80
38.70
42.57
45.00
46.40
47.04
47.19
47.07
46.90
46.87
47.06
47.48
48.10
48.94
50.04
51.50
53.33
55.38
57.29
58.60
58.91
58.00
55.94
53.03
49.76
46.53
43.59
40.98
38.59
36.25
33.86
31.40
28.94
26.57
24.36
22.29
20.26
18.23
16.18
14.16
12.24
10.42
8.60
6.66
4.48
2.00
-0.78
-3.74
-6.80
-9.82
-12.74
-15.52
-18.19
-20.90
-23.82
-27.14
-30.93
-35.10
-39.43
-43.62
-47.47
-50.94
-54.26
-57.86
-62.26
-67.91
-74.99
-83.22
-91.79
-99.42
-104.51
-105.60
-101.60
-92.24
-78.11
-60.58
-41.48
-22.67
-5.68
8.51
19.55
27.56
32.96
36.27
38.00
38.57
38.35
37.63
36.66
35.67
34.86
34.46
34.67
35.61
37.30
39.60
42.27
44.99
47.42
49.26
50.29
50.42
49.63
48.05
45.89
43.39
40.78
38.14
35.48
32.69
29.70
26.52
23.28
20.15
17.27
14.71
12.51
10.63
9.06
7.74
6.56
5.30
3.70
1.60
-1.02
-4.00
-7.07
-9.98
-12.61
-14.98
-17.27
-19.65
-22.32
-25.36
-28.74
-32.34
-35.97
-39.51
-42.87
-46.15
-49.58
-53.54
-58.45
-64.50
-71.51
-78.70
-84.79
-88.18
-87.52
-82.00
-71.72
-57.63
-41.23
-24.20
-7.99
6.32
18.05
26.87
32.74
35.85
36.60
35.56
33.38
30.67
27.94
25.58
23.79
22.68
22.28
22.65
23.83
25.86
28.67
32.03
35.51
38.58
40.77
41.76
41.51
40.22
38.20
35.74
33.07
30.32
27.54
24.79
22.10
19.53
17.10
14.81
12.63
10.49
8.31
6.04
3.68
1.31
-0.90
-2.85
-4.53
-6.10
-7.86
-10.17
-13.22
-16.99
-21.23
-25.59
-29.72
-33.45
-36.79
-40.00
-43.53
-47.95
-53.75
-61.10
-69.56
-78.04
-84.87
-88.26
-86.77
-79.80
-67.78
-51.96
-34.15
-16.19
0.40
14.58
25.79
33.89
39.04
41.59
42.03
40.94
38.94
36.56
34.24
32.24
30.71
29.73
29.31
29.48
30.26
31.60
33.46
35.71
38.16
40.54
42.57
43.94
44.42
43.93
42.53
40.46
37.98
35.34
32.68
29.98
27.16
24.13
20.93
17.66
14.53
11.66
9.05
6.54
3.90
0.98
-2.24
-5.62
-8.94
-12.06
-14.95
-17.77
-20.72
-24.00
-27.70
-31.81
-36.19
-40.70
-45.16
-49.51
-53.79
-58.19
-63.04
-68.70
-75.45
-83.29
-91.77
-99.93
-106.35
-109.42
-107.78
-100.72
-88.45
-72.12
-53.46
-34.39
-16.54
-1.01
11.71
21.58
28.85
33.95
37.32
39.41
40.69
41.51
42.11
42.58
42.94
43.15
43.23
43.29
43.54
44.16
45.33
47.05
49.17
51.34
53.20
54.34
54.54
53.74
52.09
49.86
47.35
44.77
42.21
39.67
37.12
34.57
32.07
29.70
27.48
25.35
23.21
20.92
18.43
15.78
13.09
10.50
8.11
5.95
3.94
1.95
-0.19
-2.61
-5.34
-8.34
-11.48
-14.60
-17.61
-20.53
-23.51
-26.70
-30.27
-34.24
