1636384506.00
64.000000
-0.00
-0.00
-0.00
-0.00
-0.00
-0.00
-0.00
-0.00
-0.00
-0.00
0.00
0.01
0.01
-0.00
-0.03
-0.05
-0.05
0.00
0.13
0.36
0.66
1.01
1.37
1.72
2.06
2.40
2.79
3.24
3.80
4.42
5.06
5.66
6.20
6.68
7.15
7.68
8.31
9.14
10.09
11.04
11.88
12.56
13.14
13.76
14.65
15.96
17.91
20.32
22.90
25.38
27.58
29.57
31.68
34.32
37.81
42.54
48.15
54.10
59.83
64.97
69.58
74.14
79.34
85.71
93.76
103.00
112.62
121.73
129.77
136.75
143.30
150.75
157.77
166.64
177.95
191.79
206.97
220.57
228.25
225.36
208.53
176.87
132.76
80.05
23.07
-34.94
-92.44
-149.16
-205.23
-260.37
-313.74
-363.87
-409.83
-450.91
-486.50
-515.74
-537.23
-549.22
-549.96
-538.37
-514.21
-478.67
-433.88
-382.45
-327.02
-269.84
-212.63
-156.66
-102.95
-52.37
-5.90
35.58
71.43
101.35
125.50
144.38
158.69
169.15
176.37
180.75
182.57
182.07
179.51
175.23
169.65
163.18
156.15
148.81
141.30
133.69
126.02
118.33
110.69
103.16
95.80
88.68
81.83
75.25
68.95
62.95
57.25
51.86
46.78
42.03
37.59
33.45
29.61
26.07
22.81
19.83
17.11
14.67
12.48
10.54
8.83
7.35
6.07
4.97
4.05
3.27
2.62
2.09
1.65
1.30
1.01
0.79
0.61
0.48
0.37
0.30
0.25
0.21
0.20
0.19
0.20
0.22
0.24
0.27
0.30
0.34
0.39
0.43
0.48
0.52
0.57
0.62
0.67
0.73
0.80
0.86
0.94
1.02
1.11
1.21
1.32
1.44
1.58
1.74
1.92
2.11
2.33
2.57
2.83
3.13
3.45
3.80
4.19
4.61
5.07
5.56
6.09
6.67
7.28
7.94
8.64
9.38
10.17
11.01
11.89
12.81
13.79
14.82
15.92
17.09
18.31
19.58
20.87
22.12
23.26
24.20
24.82
24.99
24.59
23.54
21.76
19.25
16.06
12.27
8.04
3.55
-0.97
-5.31
-9.26
-12.68
-15.42
-17.43
-18.69
-19.21
-19.09
-18.45
-17.40
-16.10
-14.66
-13.16
-11.63
-10.07
-8.42
-6.70
-4.94
-3.13
-1.35
0.41
2.14
3.86
5.67
7.68
9.83
12.06
14.34
16.58
18.74
20.81
22.90
25.18
27.93
31.02
34.35
37.75
40.99
43.92
46.52
48.95
51.60
54.95
58.88
63.18
67.49
71.32
74.29
76.25
77.45
78.45
80.02
82.00
84.03
85.36
84.95
81.76
74.94
63.81
47.44
29.37
10.79
-7.83
-26.61
-46.06
-66.88
-89.86
-115.63
-144.18
-174.25
-203.67
-228.72
-245.32
-250.49
-243.64
-226.92
-204.32
-180.16
-157.59
-138.48
-123.03
-110.58
-100.45
-92.12
-85.11
-78.79
-72.45
-65.55
-58.41
-51.76
-46.53
-43.46
-42.68
-43.51
-44.57
-43.99
-39.89
-31.05
-17.21
0.67
20.56
39.93
56.52
68.96
77.01
81.33
82.87
82.49
80.66
77.56
73.36
68.41
63.30
58.68
55.00
52.40
50.67
49.44
48.46
47.64
47.06
46.85
46.91
46.89
46.23
44.38
41.06
36.44
31.00
25.35
19.98
15.06
10.38
5.53
0.03
-6.46
-13.96
-22.03
-29.66
-35.44
-37.78
-35.45
-28.02
-16.08
-1.12
14.96
30.31
43.59
54.04
61.36
65.54
66.73
65.19
61.39
55.97
49.64
43.09
36.80
31.09
26.06
21.71
17.98
14.87
12.33
10.24
8.40
6.42
3.92
0.65
-3.39
-7.95
-12.62
-17.07
-21.14
-24.87
-28.50
-32.40
-36.95
-42.47
-48.99
-55.96
-62.21
-65.99
-65.52
-59.65
-48.47
-33.37
-16.69
-0.90
12.20
21.81
28.06
31.55
32.83
32.17
29.70
25.60
20.32
14.61
9.32
5.12
2.35
0.87
0.28
0.07
-0.24
-0.93
-2.11
-3.74
-5.83
-8.40
-11.53
-15.24
-19.37
-23.70
-28.02
-32.38
-37.10
-42.60
-48.86
-55.17
-60.06
-61.71
-58.76
-50.87
-38.98
-25.01
-11.07
1.18
10.94
18.18
23.29
26.55
28.05
27.66
25.39
21.60
17.01
12.50
8.80
6.21
4.60
3.57
2.70
1.71
0.55
-0.78
-2.25
-3.90
-5.83
-8.09
-10.65
-13.45
-16.40
-19.54
-23.02
-27.08
-31.92
-37.54
-43.47
-48.72
-51.86
-51.39
-46.25
-36.28
-22.39
-6.40
9.51
23.43
34.10
41.10
44.69
45.49
44.21
41.49
37.82
33.64
29.39
25.50
22.32
20.06
18.71
18.06
17.79
17.59
17.23
16.58
15.53
13.94
11.63
8.44
4.38
-0.31
-5.24
-9.99
-14.37
-18.54
-22.94
-28.21
-34.67
-42.16
-49.76
-55.88
-58.67
-56.63
-49.12
-36.71
-21.06
-4.42
11.04
23.79
33.18
39.34
42.89
44.48
44.67
43.83
42.20
40.04
37.65
35.33
33.29
31.60
30.15
28.82
27.50
26.24
25.18
24.46
24.06
23.70
22.91
21.20
18.23
13.99
8.82
3.28
-1.98
-6.54
-10.26
-13.37
-16.39
-19.91
-24.42
-29.98
-36.07
-41.58
-45.02
-45.00
-40.62
-31.93
-19.87
-6.00
8.02
20.83
31.63
40.07
46.04
49.56
50.67
49.65
47.04
43.57
39.97
36.74
34.08
31.92
30.08
28.42
26.88
25.44
24.06
22.69
21.34
20.08
18.98
18.01
16.93
15.38
13.03
9.79
5.99
2.23
-0.92
-3.22
-4.97
-6.83
-9.55
-13.54
-18.64
-24.19
-29.36
-33.54
-36.63
-39.07
-41.63
-45.10
-49.89
-55.94
-62.61
-68.87
-73.43
-75.04
-72.73
-65.98
-54.93
-40.43
-23.90
-7.09
8.27
20.91
30.15
35.95
38.73
39.09
37.60
34.71
30.79
26.24
21.63
17.59
14.70
13.28
13.28
14.31
15.84
17.41
18.76
19.90
20.90
21.80
22.37
22.27
21.12
18.74
15.27
11.09
6.69
2.40
-1.65
-5.63
-9.85
-14.59
-20.10
-26.49
-33.72
-41.42
-48.92
-55.09
-58.66
-58.53
-54.23
-46.09
-35.20
-22.93
-10.61
0.81
10.75
18.86
24.90
28.75
30.50
30.57
29.62
28.35
27.28
26.55
26.05
25.54
24.88
24.06
23.21
22.50
22.00
21.68
21.44
21.11
20.50
19.42
17.66
15.02
11.36
6.73
1.46
-3.93
-8.84
-12.89
-16.07
-18.84
-21.92
-26.01
-31.38
-37.70
-43.97
-48.77
-50.65
-48.56
-42.25
-32.30
-20.01
-6.98
5.27
15.67
23.72
29.39
32.95
34.83
35.46
35.21
34.40
33.27
32.06
31.04
30.46
30.50
31.17
32.24
33.30
33.98
34.13
33.89
33.57
33.40
33.33
32.96
31.77
29.43
25.96
21.75
17.29
12.93
8.71
4.48
0.05
-4.55
-9.09
-13.34
-17.27
-21.20
-25.62
-30.84
-36.63
-42.07
-45.78
-46.44
-43.29
-36.44
-26.80
-15.80
-4.83
5.06
13.24
19.46
23.63
25.78
26.04
24.67
22.17
19.12
16.08
13.39
11.19
9.44
8.06
7.06
6.50
6.37
6.59
6.93
7.10
6.84
6.03
4.64
2.72
0.23
-2.85
-6.52
-10.64
-14.88
-18.86
-22.28
-25.09
-27.55
-30.13
-33.27
-37.23
-41.94
-46.98
-51.63
-55.01
-56.25
-54.67
-49.94
-42.21
-32.14
-20.78
-9.38
0.87
9.11
14.86
18.13
19.23
18.68
17.05
14.78
12.29
9.85
7.72
6.10
5.13
4.81
4.97
5.36
5.70
5.83
5.78
5.65
5.50
5.22
4.51
2.92
0.15
-3.82
-8.63
-13.62
-18.10
-21.67
-24.35
-26.59
-29.06
-32.29
-36.39
-40.95
-45.15
-47.97
-48.51
-46.17
-40.73
-32.44
-21.91
-10.09
1.89
12.90
22.04
28.80
33.10
35.23
35.67
34.94
33.46
31.51
29.34
27.16
25.18
23.55
22.37
21.63
21.19
20.91
20.66
20.36
20.00
19.58
19.03
18.15
16.63
14.22
10.83
6.64
2.09
-2.32
-6.19
-9.42
-12.17
-14.81
-17.72
-21.20
-25.40
-30.26
-35.54
-40.68
-44.79
-46.75
-45.49
-40.39
-31.61
-20.14
-7.59
4.32
14.23
21.51
26.24
29.03
30.59
31.45
31.77
31.48
30.46
28.80
26.88
25.25
24.39
24.45
25.21
26.18
26.88
27.04
26.73
26.21
25.72
25.26
24.57
23.31
21.21
18.31
14.91
11.42
8.15
5.15
2.21
-0.97
-4.65
-8.84
-13.36
-17.97
-22.48
-26.84
-31.02
-34.79
-37.54
-38.39
-36.41
-31.09
-22.64
-12.06
-0.84
9.51
17.97
24.25
28.66
31.65
33.49
34.05
33.00
30.17
25.86
20.90
16.40
13.29
11.97
12.17
13.19
14.22
14.77
14.66
14.06
13.18
12.12
10.80
9.06
6.76
3.88
0.51
-3.15
-6.91
-10.58
-14.09
-17.41
-20.55
-23.53
-26.36
-29.08
-31.83
-34.85
-38.44
-42.66
-47.13
-50.96
-52.85
-51.68
-46.88
-38.82
-28.69
-18.05
-8.30
-0.28
5.80
10.12
12.92
14.30
14.21
12.62
9.73
6.12
2.58
-0.11
-1.46
-1.46
-0.58
0.53
1.26
1.37
0.95
0.34
-0.18
-0.63
-1.27
-2.50
-4.62
-7.63
-11.20
-14.81
-17.94
-20.28
-21.81
-22.85
-23.88
-25.39
-27.77
-31.11
-35.20
-39.48
-43.15
-45.28
-45.01
-41.79
-35.48
-26.47
-15.67
-4.26
6.54
15.75
22.86
27.79
30.80
32.29
32.64
32.14
30.99
29.35
27.43
25.41
23.48
21.85
20.67
20.04
19.97
20.33
20.84
21.20
21.12
20.47
19.29
17.73
15.98
14.18
12.35
10.42
8.28
5.86
3.14
0.23
-2.78
-5.81
-8.87
-12.03
-15.34
-18.85
-22.55
-26.45
-30.62
-35.08
-39.62
-43.63
-46.11
-45.87
-42.05
-34.46
-23.86
-11.70
0.33
10.88
19.18
25.15
29.06
31.31
32.19
31.91
30.66
28.74
26.55
24.52
23.00
22.14
21.86
21.88
21.85
21.53
20.91
20.17
19.59
19.36
19.41
19.43
18.92
17.45
14.89
11.48
7.73
4.23
1.40
-0.73
-2.49
-4.42
-7.02
-10.54
-14.88
-19.63
-24.19
-27.94
-30.30
-30.75
-28.87
-24.37
-17.30
-8.15
2.11
12.22
20.95
27.50
31.62
33.66
34.28
34.11
33.53
32.61
31.30
29.62
27.86
26.50
26.01
26.56
27.92
29.57
30.93
31.70
31.96
32.05
32.30
32.78
33.27
33.34
32.71
31.43
29.94
28.86
28.67
29.41
30.72
31.99
32.85
33.37
34.09
35.76
38.79
43.07
47.98
52.97
58.02
64.02
72.39
84.52
101.06
121.57
144.79
169.16
193.22
215.64
234.98
249.59
258.00
259.70
255.88
249.27
243.17
239.95
239.92
241.26
240.87
235.72
223.78
204.20
176.91
142.30
101.35
55.97
9.27
-35.03
-73.66
-104.93
-129.30
-148.70
-165.33
-180.50
-194.31
-206.07
-215.27
-222.24
-228.18
-234.50
-242.11
-250.91
-259.89
-267.55
-272.35
-272.99
-268.48
-258.18
-242.10
-221.07
-196.93
-172.16
-149.18
-129.50
-113.16
-98.79
-84.20
-67.37
-47.25
-24.34
-0.61
21.21
38.62
50.36
57.04
60.91
65.01
71.73
81.70
93.47
104.18
110.99
112.30
108.34
100.63
90.83
79.67
66.69
50.98
32.26
11.95
-7.03
-21.30
-28.71
-29.61
-27.17
-26.45
-32.65
-49.34
-77.24
-114.05
-155.19
-195.26
-229.93
-257.35
-278.96
-298.94
-323.02
-356.65
-403.21
-462.62
-530.70
-599.74
-660.11
-702.83
-722.01
-716.39
-689.14
-646.19
-593.71
-536.28
-476.30
-414.71
-352.33
-290.61
-231.35
-175.68
-123.21
-72.14
-20.25
33.80
89.65
145.46
198.68
247.12
289.79
326.97
359.92
390.42
420.50
452.12
486.65
524.19
562.79
598.27
624.87
636.67
629.33
601.48
554.99
494.37
425.63
355.07
288.46
230.42
184.04
150.46
128.82
116.57
110.33
107.08
105.02
103.96
104.71
107.97
113.31
118.55
120.34
115.52
102.51
82.07
56.90
30.32
4.89
-18.23
-38.98
-57.53
-73.55
-86.24
-95.10
-100.51
-103.95
-107.37
-112.15
-118.51
-125.46
-131.53
-135.56
-137.29
-137.28
-136.51
-135.77
-135.25
-134.34
-131.95
-126.89
-118.42
-106.57
-92.29
-77.11
-62.68
-50.28
-40.49
-33.19
-27.83
-23.74
-20.42
-17.49
-14.82
-12.24
-9.62
-6.82
-3.76
-0.45
3.03
6.58
10.10
13.53
16.84
19.93
22.63
24.69
25.84
25.81
24.49
22.00
18.60
14.63
10.40
6.01
1.33
-3.90
-9.93
-16.90
-24.59
-32.48
-39.64
-45.03
-47.65
-46.78
-42.29
-34.59
-24.58
-13.41
-2.18
8.21
17.16
24.21
29.06
31.51
31.54
29.28
25.10
19.54
13.22
6.80
0.87
-4.10
-7.83
-10.29
-11.60
-11.96
-11.61
-10.76
-9.59
-8.25
-6.93
-5.70
-4.59
-3.61
-2.82
-2.48
-2.96
-4.76
-8.26
-13.57
-20.40
-27.93
-34.99
-40.14
-42.12
-40.13
-34.11
-24.82
-13.58
-1.86
9.03
18.26
25.47
30.58
33.71
35.07
34.84
33.32
30.87
27.92
24.88
22.09
19.78
18.01
16.83
16.19
16.06
16.33
16.80
17.14
16.94
15.85
13.77
10.84
7.39
3.70
-0.10
-4.12
-8.58
-13.68
-19.39
-25.37
-30.99
-35.40
-37.65
-36.92
-32.80
-25.38
-15.37
-3.91
7.70
18.33
27.20
33.94
38.53
41.09
41.87
41.22
39.51
37.20
34.66
32.18
29.88
27.77
25.86
24.14
22.74
21.76
21.26
21.15
21.18
20.98
20.19
18.49
15.76
12.11
7.85
3.41
-0.88
-4.85
-8.61
-12.47
-16.87
-22.15
-28.33
-34.98
-41.15
-45.57
-46.93
-44.32
-37.49
-27.04
-14.25
-0.69
12.13
23.12
31.71
37.80
41.54
43.26
43.32
42.10
39.98
37.41
34.83
32.53
30.64
29.10
27.74
26.38
25.00
23.77
22.91
22.58
22.65
22.71
22.16
20.47
17.40
13.10
8.04
2.85
-1.97
-6.19
-9.86
-13.27
-16.83
-20.95
-25.82
-31.29
-36.72
-41.03
-42.90
-41.17
-35.28
-25.53
-13.01
0.66
13.86
25.34
34.43
40.99
45.21
47.36
47.74
46.60
44.21
41.00
37.50
34.28
31.82
30.33
29.68
29.49
29.27
28.68
27.60
26.21
24.80
23.56
22.49
21.29
19.51
16.76
12.92
8.22
3.18
-1.59
-5.69
-9.06
-11.96
-14.85
-18.15
-22.16
-26.90
-32.10
-37.16
-41.20
-43.14
-41.97
-37.13
-28.71
-17.57
-5.10
7.12
17.82
26.19
32.01
35.39
36.67
36.14
34.12
30.91
26.94
22.79
19.00
16.05
14.10
13.04
12.55
12.24
11.89
11.42
10.87
10.25
9.41
8.09
5.99
2.99
-0.82
-5.15
-9.57
-13.73
-17.42
-20.60
-23.46
-26.29
-29.40
-33.06
-37.44
-42.36
-47.27
-51.21
-53.00
-51.59
-46.46
-37.86
-26.78
-14.73
-3.24
6.48
13.79
18.52
20.83
20.95
19.11
15.62
10.95
5.82
1.01
-2.81
-5.35
-6.71
-7.28
-7.49
-7.56
-7.52
-7.22
-6.58
-5.70
-4.86
-4.41
-4.65
-5.70
-7.42
-9.53
-11.66
-13.47
-14.80
-15.70
-16.51
-17.70
-19.80
-23.12
-27.47
-32.17
-36.03
-37.72
-36.19
-30.97
-22.41
-11.51
0.36
11.84
21.89
29.89
35.65
39.24
40.92
41.03
39.88
37.84
35.25
32.47
29.86
27.74
26.26
25.33
24.72
24.11
23.26
22.19
21.11
20.28
19.83
19.62
19.31
18.44
16.67
13.89
10.30
6.24
2.12
-1.78
-5.32
-8.52
-11.48
-14.43
-17.65
-21.38
-25.74
-30.53
-35.17
-38.68
-39.95
-38.06
-32.69
-24.24
-13.77
-2.65
7.87
16.91
24.10
29.41
32.98
34.98
35.56
34.89
33.23
30.97
28.57
26.46
24.88
23.88
23.33
23.02
22.77
22.46
22.07
21.65
21.28
20.95
20.59
20.06
19.20
17.88
16.09
13.93
11.62
9.36
7.30
5.38
3.39
1.01
-2.02
-5.78
-10.11
-14.63
-18.95
-22.82
-26.14
-29.03
-31.77
-34.64
-37.92
-41.73
-45.95
-50.14
-53.46
-54.88
-53.40
-48.43
-40.03
-28.97
-16.54
-4.15
7.07
16.42
23.73
29.07
32.65
34.67
35.30
34.75
33.36
31.58
29.87
28.60
27.97
27.93
28.32
28.85
29.33
29.61
29.66
29.52
29.21
28.82
28.33
27.73
26.91
25.69
23.79
20.98
17.16
12.49
7.31
2.06
-3.04
-7.98
-13.05
-18.58
-24.79
-31.63
-38.81
-45.77
-51.80
-56.10
-57.87
-56.45
-51.55
-43.40
-32.72
-20.61
-8.35
2.94
12.38
19.43
23.91
25.93
25.90
24.33
21.83
18.92
15.93
13.05
10.30
7.69
5.18
2.79
0.58
-1.37
-3.04
-4.46
-5.73
-7.08
-8.74
-10.83
-13.41
-16.38
-19.53
-22.65
-25.54
-28.13
-30.45
-32.70
-35.15
-38.04
-41.42
-44.94
-47.92
-49.41
-48.55
-44.81
-38.29
-29.64
-19.94
-10.33
-1.78
5.10
10.10
13.27
14.82
15.01
14.13
12.53
10.64
8.96
7.88
7.68
8.38
9.76
11.53
13.35
15.03
16.44
17.51
18.08
18.00
17.11
15.36
12.91
9.98
6.84
3.69
0.58
-2.58
-5.95
-9.76
-14.20
-19.27
-24.70
-29.84
-33.74
-35.45
-34.24
-29.95
-23.02
-14.39
-5.16
3.64
11.31
17.50
22.03
24.93
26.25
26.15
24.83
22.70
20.15
17.62
15.39
13.54
12.03
10.75
9.64
8.71
8.05
7.63
7.35
6.93
6.10
4.63
2.49
-0.22
-3.26
-6.37
-9.30
-11.92
-14.18
-16.28
-18.59
-21.52
-25.35
-29.93
-34.55
-38.11
-39.41
-37.59
-32.49
-24.64
-15.13
-5.20
4.01
11.72
17.56
21.44
23.54
24.11
23.46
21.88
19.71
17.26
14.81
12.59
10.72
9.20
8.01
7.10
6.55
6.40
6.65
7.16
7.61
7.65
7.00
5.62
3.62
1.21
-1.37
-4.02
-6.71
-9.45
-12.35
-15.58
-19.31
-23.63
-28.29
-32.68
-35.80
-36.54
-34.08
-28.22
-19.55
-9.25
1.25
10.70
18.32
23.84
27.35
29.11
29.39
28.48
26.72
24.51
22.24
20.20
18.49
17.08
15.86
14.83
14.06
13.68
13.73
14.12
14.57
14.74
14.31
13.07
11.02
8.27
5.06
1.66
-1.76
-5.10
-8.42
-11.86
-15.69
-20.05
-24.87
-29.69
-33.65
-35.67
-34.73
-30.32
-22.63
-12.64
-1.82
8.32
16.66
22.72
26.60
28.72
29.56
29.37
28.25
26.17
23.22
19.65
15.94
12.60
10.08
8.65
8.29
8.75
9.59
10.23
10.15
8.91
6.34
2.53
-2.10
-6.94
-11.28
-14.45
-16.09
-16.27
-15.60
-15.15
-16.08
-19.20
-24.53
-31.10
-37.18
-40.80
-40.46
-35.63
-26.92
-15.87
-4.38
5.83
13.60
18.48
20.60
20.47
18.68
15.90
12.71
9.66
7.15
5.38
4.37
3.92
3.74
3.51
3.09
2.44
1.64
0.76
-0.21
-1.43
-3.11
-5.40
-8.33
-11.69
-15.18
-18.52
-21.56
-24.44
-27.45
-30.93
-35.06
-39.68
-44.23
-47.84
-49.50
-48.35
-43.95
-36.42
-26.55
-15.47
-4.45
5.44
13.50
19.49
23.44
25.50
25.89
24.85
22.74
20.00
17.12
14.54
12.54
11.18
10.42
10.13
10.19
10.49
10.84
11.02
10.74
9.72
7.81
5.03
1.57
-2.28
-6.17
-9.87
-13.27
-16.48
-19.79
-23.55
-28.06
-33.37
-39.10
-44.43
-48.23
-49.33
-46.90
-40.75
-31.40
-19.99
-7.94
3.40
13.06
20.51
25.66
28.67
29.80
29.38
27.72
25.18
22.13
18.91
15.75
12.79
10.03
7.37
4.70
1.96
-0.83
-3.64
-6.47
-9.40
-12.64
-16.42
-20.85
-25.80
-30.88
-35.60
-39.56
-42.70
-45.44
-48.54
-52.78
-58.58
-65.70
-73.11
-79.29
-82.69
-82.37
-78.28
-71.37
-63.09
-54.95
-47.98
-42.46
-37.86
-32.98
-26.25
-16.17
-1.89
16.31
36.93
57.71
76.56
92.47
105.88
118.32
131.41
145.87
161.11
175.49
186.99
194.01
195.80
192.58
185.25
175.17
163.78
152.20
141.04
130.30
119.72
109.12
98.94
90.18
83.97
80.93
80.64
81.44
80.92
76.62
66.93
51.63
32.01
10.58
-9.69
-26.35
-38.13
-45.19
-48.68
-50.12
-50.72
-51.10
-51.46
-51.92
-52.72
-54.28
-56.81
-60.11
-63.46
-65.90
-66.70
-65.73
-63.60
-61.39
-60.16
-60.39
-61.70
-62.91
-62.53
-59.60
-54.13
-47.30
-40.84
-36.36
-34.56
-35.14
-37.03
-39.03
-40.33
-40.74
-40.56
-40.37
-40.73
-42.08
-44.55
-47.90
-51.34
-53.75
-53.91
-50.93
-44.56
-35.35
-24.46
-13.28
-3.02
5.49
11.93
16.34
18.91
19.89
19.49
17.89
15.38
12.35
9.37
7.03
5.87
6.20
8.03
11.00
14.51
17.80
20.27
21.63
22.13
22.43
23.34
25.36
28.35
31.43
33.32
32.96
30.08
25.45
20.61
17.29
16.73
19.30
24.49
31.09
37.56
42.38
44.67
44.93
45.47
50.21
63.28
86.95
119.78
156.13
187.53
205.46
204.39
183.57
147.06
102.00
56.18
15.83
-15.48
-36.74
-48.59
-51.97
-47.09
-33.09
-8.45
28.00
75.97
133.09
194.94
255.80
309.72
351.73
378.74
389.88
386.38
370.72
345.52
312.71
273.34
228.22
178.84
127.87
78.76
34.66
-2.67
-33.28
-58.28
-78.78
-94.99
-106.31
-112.10
-112.60
-109.30
-104.51
-100.50
-98.76
-99.67
-102.78
-107.26
-112.28
-117.19
-121.52
-125.05
-127.85
-130.37
-133.24
-136.99
-141.66
-146.76
-151.31
-154.40
-155.49
-154.64
-152.40
-149.44
-146.30
-143.27
-140.59
-138.70
-138.36
-140.46
-145.71
-154.20
-165.26
-177.55
-189.45
-199.45
-206.34
-209.29
-207.93
-202.23
-192.61
-179.88
-165.20
-150.10
-136.51
-126.65
-122.85
-126.79
-138.78
-157.12
-178.26
-197.56
-210.84
-215.60
-211.74
-201.24
-187.07
-171.93
-157.31
-143.38
-129.24
-113.77
-96.10
-75.88
-53.11
-27.70
0.67
32.38
67.23
103.98
140.03
172.01
196.80
212.59
219.49
219.23
214.15
205.83
194.22
177.74
154.58
124.22
88.55
51.64
18.50
-6.78
-22.45
-29.30
-29.99
-27.99
-26.85
-30.23
-41.78
-64.45
-98.90
-142.13
-187.16
-224.86
-246.89
-248.69
-230.73
-197.59
-155.45
-109.60
-63.08
-16.83
28.96
73.55
114.88
150.01
175.91
190.48
193.43
186.39
172.72
156.50
141.34
129.24
120.04
111.77
101.58
87.16
67.72
44.43
20.15
-1.33
-16.41
-22.45
-18.59
-5.95
12.40
32.13
48.56
57.81
57.55
47.16
27.38
-0.53
-35.17
-74.97
-117.86
-160.81
-199.68
-229.65
-245.89
-244.52
-223.46
-183.34
-127.99
-64.27
-1.09
52.81
91.44
113.71
123.99
130.80
144.06
171.89
217.80
279.39
348.82
414.94
466.40
494.99
497.64
476.77
438.50
390.10
337.44
283.96
231.04
179.33
129.90
84.51
44.84
11.44
-16.76
-41.89
-65.93
-89.39
-111.06
-128.53
-139.80
-144.67
-145.28
-145.34
-148.46
-156.57
-169.35
-184.92
-201.33
-217.95
-235.68
-256.12
-280.02
-306.01
-330.36
-347.64
-352.29
-340.11
-309.45
-261.71
-201.11
-134.09
-68.30
-11.41
30.33
53.50
58.50
49.49
33.17
16.64
5.04
0.42
1.69
6.06
10.65
13.63
14.48
13.27
10.17
5.16
-1.48
-8.83
-15.14
-18.39
-17.10
-10.98
-1.10
10.50
21.56
30.26
35.73
38.15
38.32
37.14
34.98
31.40
25.39
15.90
2.49
-14.22
-32.63
-50.67
-66.54
-79.24
-88.79
-96.00
-101.99
-107.69
-113.50
-119.32
-124.76
-129.33
-132.68
-134.57
-134.72
-132.86
-128.59
-121.42
-110.80
-96.15
-76.96
-52.97
-24.33
8.06
42.44
76.35
107.02
131.97
149.69
160.13
164.80
166.31
167.72
171.56
179.30
191.07
206.00
222.71
239.73
255.75
269.49
279.61
284.80
284.11
277.25
264.86
248.43
229.71
210.06
190.02
169.25
146.96
122.52
95.97
68.26
40.94
15.64
-6.54
-25.36
-41.40
-55.70
-69.11
-82.00
-94.02
-104.37
-112.12
-116.48
-116.93
-113.21
-105.44
-94.15
-80.53
-66.27
-53.16
-42.44
-34.32
-27.98
-22.16
-16.01
-9.61
-3.88
0.16
2.22
3.22
4.95
9.41
18.01
31.19
48.50
68.94
91.20
113.85
135.27
153.83
167.94
176.35
178.41
174.20
164.65
151.49
136.85
122.75
110.32
99.23
87.57
72.49
51.39
23.16
-11.03
-47.65
-81.73
-108.04
-122.70
-124.31
-114.62
-98.35
-82.05
-72.20
-73.14
-85.59
-106.60
-130.90
-153.23
-170.52
-182.87
-193.07
-204.74
-220.30
-239.84
-260.85
-279.64
-292.96
-299.48
-300.66
-300.41
-304.13
-316.97
-341.86
-377.90
-419.98
-460.18
-490.32
-505.00
-503.08
-487.50
-463.16
-434.47
-403.86
-371.96
-338.95
-305.91
-275.18
-249.27
-229.40
-214.51
-201.67
-187.59
-170.26
-149.77
-127.98
-107.49
-90.16
-76.39
-65.13
-54.36
-42.20
-27.73
-11.22
5.99
22.15
35.91
46.81
55.43
63.04
71.11
80.68
92.06
104.83
118.11
131.00
143.04
154.37
165.67
177.84
191.55
206.96
223.50
240.08
255.46
268.67
279.25
287.38
293.69
299.13
304.87
312.13
321.88
334.24
347.91
360.07
366.85
364.60
351.33
327.53
296.06
261.08
226.53
195.04
167.68
144.35
124.61
108.10
94.45
83.03
72.73
62.17
50.34
37.18
23.86
12.47
5.32
3.97
8.70
18.37
30.84
43.73
55.03
63.51
68.71
70.75
70.00
66.97
62.20
56.29
49.94
43.85
38.67
34.84
32.52
31.57
31.64
32.17
32.62
32.52
31.57
29.72
27.14
24.15
21.07
18.10
15.08
11.58
6.91
0.47
-7.95
-17.87
-28.17
-37.25
-43.50
-45.69
-43.25
-36.33
-25.72
-12.66
1.38
14.89
26.57
35.50
41.28
43.99
44.05
41.99
38.33
33.49
27.87
21.98
16.39
11.69
8.24
6.05
4.70
3.55
1.89
-0.80
-4.77
-9.97
-16.16
-23.02
-30.25
-37.68
-45.35
-53.48
-62.53
-73.07
-85.50
-99.81
-115.29
-130.57
-143.87
-153.56
-158.73
-159.53
-157.16
-153.47
-150.36
-149.23
-150.76
-154.94
-161.48
-170.02
-180.27
-191.74
-203.55
-214.16
-221.62
-223.92
-219.46
-207.27
-187.03
-158.86
-123.11
-80.30
-31.26
22.84
80.59
140.61
201.71
262.64
321.72
376.36
423.12
458.44
479.67
486.11
479.26
462.22
438.65
411.60
383.05
353.97
324.86
296.26
268.98
243.95
221.89
202.99
186.95
173.03
160.46
148.62
137.21
126.24
115.77
105.73
95.83
85.59
74.58
62.72
50.36
38.26
27.30
18.07
10.73
4.93
0.08
-4.38
-8.73
-12.92
-16.74
-20.00
-22.72
-25.10
-27.40
-29.77
-32.22
-34.61
-36.85
-38.94
-41.07
-43.48
-46.34
-49.60
-52.93
-55.71
-57.19
-56.73
-54.04
-49.24
-42.93
-35.91
-29.03
-22.92
-18.00
-14.43
-12.17
-11.10
-11.02
-11.72
-13.01
-14.72
-16.74
-18.94
-21.12
-23.07
-24.54
-25.36
-25.51
-25.15
-24.59
-24.15
-24.11
-24.58
-25.57
-26.97
-28.65
-30.47
-32.35
-34.28
-36.36
-38.71
-41.53
-44.86
-48.58
-52.26
-55.29
-56.95
-56.73
-54.40
-50.10
-44.16
-37.05
-29.35
-21.73
-15.11
-10.48
-8.68
-10.02
-14.06
-19.62
-25.12
-28.95
-29.77
-26.55
-18.50
-5.18
13.09
34.76
56.85
75.39
86.53
87.76
78.78
61.48
39.16
15.42
-6.87
-25.98
-41.25
-52.82
-61.24
-67.38
-72.22
-76.79
-81.92
-87.90
-94.44
-100.67
-105.39
-107.45
-106.12
-101.38
-93.89
-84.84
-75.54
-67.02
-59.82
-53.93
-49.04
-44.78
-40.89
-37.35
-34.25
-31.69
-29.65
-27.95
-26.28
-24.35
-21.96
-19.01
-15.60
-11.88
-8.08
-4.50
-1.48
0.61
1.55
1.26
-0.08
-2.19
-4.76
-7.57
-10.53
-13.63
-16.94
-20.55
-24.56
-28.90
-33.21
-36.78
-38.58
-37.61
-33.28
-25.72
-15.83
-5.00
5.37
14.19
20.91
25.39
27.69
27.92
26.17
22.64
17.67
11.82
5.71
-0.16
-5.46
-10.10
-14.09
-17.34
-19.68
-20.82
-20.63
-19.29
-17.33
-15.46
-14.31
-14.15
-14.77
-15.74
-16.60
-17.15
-17.48
-17.94
-18.88
-20.55
-23.05
-26.26
-29.86
-33.20
-35.42
-35.51
-32.64
-26.54
-17.61
-6.89
4.26
14.65
23.48
30.45
35.60
39.05
40.83
40.91
39.35
36.47
32.85
29.27
26.43
24.71
24.10
24.21
24.61
24.93
25.06
25.06
24.99
24.76
24.08
22.56
19.85
15.86
10.76
4.98
-1.00
-6.75
-12.06
-16.96
-21.63
-26.37
-31.46
-37.08
-43.24
-49.63
-55.59
-60.15
-62.23
-60.94
-55.94
-47.60
-36.91
-25.20
-13.78
-3.63
4.74
11.20
15.87
18.94
20.67
21.41
21.52
21.40
21.42
21.75
22.42
23.33
24.38
25.57
26.96
28.60
30.43
32.20
33.45
33.70
32.65
30.18
26.46
21.80
16.57
11.09
5.58
0.14
-5.27
-10.79
-16.67
-23.03
-29.75
-36.25
-41.59
-44.64
-44.50
-40.84
-34.04
-25.16
-15.54
-6.40
1.45
7.65
12.20
15.23
16.85
17.19
16.45
14.98
13.23
11.62
10.44
9.83
9.82
10.32
11.28
12.58
14.07
15.51
16.65
17.17
16.86
15.59
13.40
10.51
7.18
3.70
0.15
-3.57
-7.82
-12.95
-19.10
-26.01
-32.91
-38.68
-42.12
-42.34
-39.01
-32.51
-23.86
-14.41
-5.54
1.71
6.82
9.75
10.81
10.45
9.06
6.93
4.28
1.30
-1.71
-4.36
-6.29
-7.22
-7.16
-6.34
-5.22
-4.32
-4.05
-4.52
-5.61
-7.01
-8.42
-9.69
-10.91
-12.25
-13.94
-16.14
-18.96
-22.48
-26.65
-31.25
-35.63
-38.81
-39.66
-37.23
-31.23
-22.17
-11.25
-0.02
10.10
18.20
23.91
27.36
28.89
28.90
27.72
25.54
22.55
19.00
15.25
11.70
8.78
6.81
5.92
6.08
7.05
8.43
9.68
10.28
9.81
8.11
5.32
1.79
-2.03
-5.79
-9.33
-12.69
-16.05
-19.66
-23.66
-27.98
-32.16
-35.46
-36.84
-35.37
-30.50
-22.35
-11.77
-0.12
11.09
20.55
27.44
31.46
32.75
31.71
28.82
24.62
19.65
14.44
9.56
5.54
2.76
1.40
1.38
2.41
4.10
5.99
7.70
8.89
9.30
8.77
7.28
4.93
1.92
-1.46
-5.00
-8.57
-12.18
-16.04
-20.36
-25.33
-30.87
-36.55
-41.57
-44.83
-45.23
-41.95
-34.79
-24.30
-11.68
1.52
13.79
24.01
31.66
36.69
39.34
39.92
38.67
35.79
31.60
26.64
21.65
17.41
14.56
13.34
13.60
14.89
16.69
18.62
20.49
22.23
23.69
24.57
24.40
22.71
19.38
14.74
9.55
4.75
1.05
-1.32
-2.70
-3.88
-5.78
-9.13
-14.19
-20.63
-27.49
-33.43
-37.01
-37.07
-33.04
-25.16
-14.35
-1.96
10.55
21.95
31.39
38.41
42.82
44.56
43.71
40.56
35.61
29.64
23.58
18.29
14.48
12.50
12.39
13.88
16.52
19.70
22.79
25.21
26.53
26.52
25.17
22.62
19.05
14.61
9.40
3.51
-2.98
-9.95
-17.24
-24.68
-32.04
-39.06
-45.44
-50.95
-55.48
-59.16
-62.26
-65.09
-67.81
-70.19
-71.58
-71.07
-67.74
-61.05
-51.10
-38.74
-25.31
-12.35
-1.18
7.38
13.11
16.22
17.10
16.14
13.62
9.84
5.16
0.18
-4.40
-7.86
-9.71
-9.89
-8.69
-6.70
-4.61
-3.02
-2.26
-2.41
-3.33
-4.70
-6.24
-7.78
-9.40
-11.37
-14.02
-17.54
-21.78
-26.24
-30.20
-32.94
-33.96
-33.06
-30.44
-26.48
-21.85
-17.34
-13.66
-11.09
-9.02
-5.86
0.63
12.46
30.47
53.70
79.55
104.61
125.96
142.08
153.15
160.48
165.69
169.83
173.04
174.58
173.33
168.28
158.92
145.41
128.55
109.52
89.71
70.44
52.81
37.48
24.67
14.08
5.03
-3.30
-11.68
-20.53
-29.81
-39.05
-47.59
-54.86
-60.59
-64.96
-68.44
-71.65
-75.15
-79.24
-83.98
-89.18
-94.58
-100.04
-105.50
-110.91
-116.08
-120.48
-123.22
-123.30
-119.90
-112.69
-102.01
-88.73
-74.02
-59.01
-44.66
-31.65
-20.48
-11.47
-4.77
-0.26
2.44
3.93
4.82
5.64
6.68
8.04
9.72
11.69
13.93
16.41
19.04
21.68
24.15
26.21
27.66
28.33
28.18
27.26
25.79
24.00
22.05
19.97
17.66
14.94
11.68
7.87
3.61
-0.84
-5.23
-9.27
-12.80
-15.76
-18.36
-21.00
-24.15
-28.14
-32.78
-37.29
-40.37
-40.60
-36.99
-29.34
-18.42
-5.64
7.35
19.19
29.06
36.65
42.00
45.23
46.42
45.61
42.97
38.93
34.17
29.50
25.63
23.00
21.67
21.35
21.59
21.97
22.17
22.10
21.79
21.31
20.66
19.77
18.47
16.65
14.24
11.27
7.87
4.18
0.39
-3.35
-6.90
-10.15
-13.09
-15.83
-18.65
-21.92
-25.91
-30.60
-35.52
-39.73
-42.12
-41.65
-37.78
-30.62
-20.93
-9.91
1.09
10.92
18.82
24.44
27.78
29.02
28.36
26.06
22.40
17.81
12.85
8.18
4.39
1.84
0.60
0.43
0.94
1.71
2.43
2.90
3.01
2.67
1.75
0.15
-2.21
-5.29
-8.90
-12.75
-16.56
-20.11
-23.37
-26.46
-29.65
-33.19
-37.19
-41.45
-45.47
-48.52
-49.75
-48.55
-44.64
-38.15
-29.58
-19.66
-9.12
1.33
11.09
19.65
26.54
31.33
33.73
33.64
31.23
26.99
21.69
16.28
11.63
8.34
6.68
6.52
7.53
9.26
11.20
12.87
13.74
13.41
11.63
8.51
4.50
0.26
-3.53
-6.44
-8.46
-9.94
-11.49
-13.70
-16.95
-21.32
-26.45
-31.62
-35.80
-37.91
-37.02
-32.68
-25.08
-15.09
-4.03
6.65
15.81
22.79
27.43
29.97
30.73
30.03
28.15
25.33
21.90
18.28
14.91
12.14
10.16
8.91
8.24
7.97
7.99
8.23
8.64
9.02
9.04
8.35
6.72
4.14
0.88
-2.72
-6.38
-10.05
-13.89
-18.11
-22.85
-28.02
-33.26
-37.98
-41.41
-42.69
-41.10
-36.23
-28.27
-17.98
-6.60
4.50
14.21
21.85
27.29
30.62
32.08
31.87
30.22
27.47
24.09
20.59
17.47
15.01
13.30
12.27
11.81
11.81
12.20
12.87
13.60
14.10
13.96
12.87
10.71
7.60
3.92
0.19
-3.16
-5.97
-8.36
-10.76
-13.69
-17.59
-22.58
-28.32
-34.04
-38.58
-40.69
-39.38
-34.23
-25.64
-14.69
-2.90
8.19
17.44
24.25
28.59
30.77
31.22
30.33
28.43
25.76
22.64
19.52
16.90
15.24
14.82
15.60
17.23
19.20
21.00
22.28
22.91
22.94
22.44
21.49
20.10
18.24
15.92
13.12
9.89
6.36
2.71
-0.77
-3.81
-6.23
-8.06
-9.56
-11.10
-13.12
-15.91
-19.54
-23.75
-27.92
-31.02
-31.81
-29.13
-22.35
-11.68
1.74
16.14
29.53
40.38
47.87
51.97
53.13
51.97
49.04
44.77
39.53
33.80
28.13
23.14
19.27
16.77
15.55
15.29
15.55
15.92
16.11
15.94
15.34
14.25
12.59
10.35
7.61
4.65
1.87
-0.27
-1.38
-1.29
-0.05
2.09
4.70
7.31
9.50
10.90
11.30
10.59
8.78
5.86
1.81
-3.50
-10.20
-18.38
-27.89
-38.23
-48.50
-57.42
-63.61
-65.86
-63.47
-56.50
-45.79
-32.73
-18.91
-5.77
5.71
15.07
22.27
27.52
31.15
33.50
34.90
35.75
36.48
37.51
39.13
41.42
44.25
47.30
50.21
52.69
54.54
55.65
55.99
55.56
54.36
52.47
49.95
46.93
43.49
39.70
35.57
31.09
26.22
20.95
15.26
9.11
2.57
-4.23
-11.04
-17.59
-23.60
-29.02
-34.00
-38.90
-44.05
-49.60
-55.28
-60.37
-63.93
-65.05
-63.20
-58.41
-51.33
-43.01
-34.60
-27.08
-21.10
-16.90
-14.52
-13.86
-14.82
-17.23
-20.74
-24.76
-28.52
-31.26
-32.47
-32.13
-30.60
-28.56
-26.61
-25.09
-24.01
-23.08
-21.99
-20.54
-18.84
-17.24
-16.23
-16.18
-17.25
-19.28
-21.84
-24.40
-26.56
-28.12
-29.20
-30.10
-31.24
-32.94
-35.40
-38.54
-41.98
-45.04
-46.84
-46.49
-43.32
-37.09
-28.11
-17.18
-5.42
5.94
15.85
23.56
28.68
31.13
31.10
28.95
25.22
20.49
15.43
10.62
6.57
3.54
1.55
0.41
-0.22
-0.62
-0.97
-1.31
-1.62
-1.90
-2.31
-3.13
-4.67
-7.19
-10.75
-15.21
-20.31
-25.69
-31.04
-36.06
-40.57
-44.44
-47.62
-50.14
-52.06
-53.42
-54.08
-53.73
-51.90
-48.13
-42.17
-34.08
-24.34
-13.68
-2.93
7.15
15.96
23.08
28.23
31.28
32.21
31.25
28.81
25.50
21.97
18.80
16.42
15.06
14.69
15.20
16.40
18.08
20.02
21.98
23.62
24.57
24.38
22.73
19.49
14.91
9.52
4.02
-0.94
-5.03
-8.27
-11.03
-13.78
-16.94
-20.67
-24.69
-28.41
-30.94
-31.43
-29.28
-24.37
-17.13
-8.49
0.42
8.59
15.33
20.31
23.51
25.02
24.98
23.60
21.16
18.13
15.03
12.34
10.38
9.21
8.69
8.60
8.76
9.05
9.45
9.91
10.29
10.37
9.83
8.43
6.07
2.90
-0.74
-4.39
-7.69
-10.45
-12.77
-14.92
-17.24
-20.00
-23.25
-26.77
-30.06
-32.40
-32.99
-31.17
-26.60
-19.46
-10.44
-0.63
8.77
16.75
22.75
26.64
28.62
29.05
28.26
26.53
24.10
21.28
18.43
15.92
14.02
12.83
12.32
12.34
12.70
13.20
13.65
13.89
13.76
13.11
11.86
9.98
7.51
4.57
1.32
-1.97
-5.07
-7.83
-10.26
-12.48
-14.70
-17.02
-19.41
-21.67
-23.49
-24.57
-24.67
-23.65
-21.50
-18.30
-14.26
-9.61
-4.60
0.55
5.71
10.75
15.47
19.56
22.60
24.23
24.22
22.65
19.95
16.71
13.50
10.75
8.60
6.99
5.74
4.67
3.69
2.72
1.65
0.29
-1.62
-4.33
-7.94
-12.34
-17.22
-22.11
-26.54
-30.12
-32.70
-34.37
-35.37
-36.10
-36.86
-37.81
-38.82
-39.40
-38.83
-36.31
-31.32
-23.84
-14.45
-4.17
5.85
14.71
21.88
27.26
30.91
32.87
33.14
31.76
28.97
25.29
21.44
18.06
15.56
14.06
13.39
13.32
13.67
14.33
15.18
16.03
16.59
16.53
15.70
14.11
12.00
9.68
7.35
5.11
2.88
0.49
-2.18
-5.23
-8.67
-12.42
-16.17
-19.37
-21.28
-21.15
-18.47
-13.23
-5.92
2.51
10.98
18.49
24.35
28.24
30.20
30.51
29.57
27.78
25.53
23.13
20.83
18.82
17.20
16.04
15.37
15.28
15.83
17.10
19.00
21.22
23.18
24.23
23.93
22.27
19.77
17.31
15.65
15.14
15.55
16.16
16.13
14.94
12.62
9.83
7.64
7.22
9.45
14.70
22.76
32.95
44.38
56.16
67.72
78.88
89.91
101.40
113.99
127.87
142.26
154.86
161.96
159.18
142.87
111.69
67.47
14.78
-40.40
-92.48
-137.35
-172.51
-196.34
-207.41
-204.49
-187.38
-157.93
-120.32
-80.11
-42.37
-9.90
17.46
42.08
66.74
92.84
119.51
144.04
163.11
174.27
176.94
172.64
164.56
156.64
152.68
155.24
164.98
180.29
197.57
212.23
220.00
218.39
207.44
189.63
168.82
148.85
132.23
119.66
110.26
102.52
95.24
88.17
81.91
77.44
75.33
75.30
76.22
76.57
75.01
70.85
64.15
55.39
45.11
33.48
20.20
4.71
-13.43
-34.18
-56.93
-80.65
-104.20
-126.57
-147.05
-165.13
-180.49
-193.04
-202.99
-210.83
-217.33
-223.39
-229.91
-237.66
-247.18
-258.50
-270.86
-282.74
-292.01
-296.58
-295.07
-287.33
-274.42
-258.09
-240.16
-221.98
-204.24
-187.17
-170.72
-154.77
-139.24
-124.06
-109.29
-95.03
-81.45
-68.68
-56.83
-45.93
-35.95
-26.81
-18.33
-10.30
-2.49
5.24
12.80
19.88
26.06
31.04
34.80
37.60
39.84
41.85
43.62
44.83
44.99
43.70
40.97
37.18
33.10
29.62
27.40
26.76
27.58
29.39
31.46
33.01
33.31
31.89
28.60
23.60
17.35
10.36
3.06
-4.29
-11.54
-18.51
-24.90
-30.39
-34.74
-38.01
-40.58
-43.00
-45.80
-49.26
-53.43
-58.19
-63.36
-68.71
-73.88
-78.31
-81.28
-82.11
-80.39
-76.17
-69.88
-62.15
-53.56
-44.50
-35.26
-26.15
-17.57
-10.00
-3.94
0.25
2.33
2.14
-0.38
-5.15
-11.77
-19.36
-26.63
-32.19
-34.91
-34.27
-30.48
-24.27
-16.58
-8.38
-0.43
6.68
12.57
17.01
19.91
21.37
21.63
21.02
19.89
18.59
17.45
16.84
17.03
18.13
20.03
22.38
24.70
26.59
27.83
28.35
28.18
27.31
25.70
23.28
20.04
16.14
11.89
7.65
3.70
0.22
-2.79
-5.47
-8.10
-11.12
-15.04
-20.34
-27.26
-35.69
-45.09
-54.58
-63.10
-69.62
-73.39
-74.00
-71.50
-66.29
-59.06
-50.71
-42.22
-34.51
-28.40
-24.41
-22.66
-22.75
-23.79
-24.52
-23.55
-19.66
-12.12
-0.84
13.52
29.73
46.13
61.15
73.65
83.11
89.69
93.96
96.54
97.87
98.24
97.87
97.17
96.69
97.02
98.45
100.82
103.57
106.08
107.97
109.31
110.47
111.80
113.19
114.04
113.45
110.64
105.30
97.72
88.67
79.03
69.52
60.54
52.17
44.33
36.86
29.61
22.40
15.07
7.60
0.07
-7.20
-13.83
-19.43
-23.73
-26.67
-28.41
-29.25
-29.60
-29.88
-30.42
-31.42
-32.85
-34.48
-36.01
-37.17
-37.88
-38.32
-38.92
-40.14
-42.27
-45.19
-48.29
-50.53
-50.77
-48.04
-41.86
-32.37
-20.24
-6.52
7.63
21.10
32.97
42.49
49.12
52.51
52.56
49.44
43.59
35.72
26.77
17.81
9.84
3.59
-0.66
-3.20
-4.64
-5.64
-6.70
-8.01
-9.53
-11.26
-13.35
-16.17
-20.12
-25.42
-32.02
-39.59
-47.67
-55.74
-63.29
-69.74
-74.38
-76.49
-75.42
-70.87
-63.03
-52.57
-40.56
-28.20
-16.65
-6.83
0.56
5.12
6.67
5.31
1.54
-3.60
-8.57
-11.48
-10.68
-5.34
4.09
15.91
27.68
37.09
42.70
44.31
42.76
39.45
35.67
32.34
29.82
28.00
26.52
24.82
22.36
18.71
13.85
8.25
2.93
-0.69
-1.15
2.67
11.10
23.57
38.61
54.35
69.09
81.81
92.37
101.34
109.46
117.16
124.27
130.00
133.29
133.14
128.88
120.35
107.91
92.55
75.78
59.52
45.71
35.83
30.39
28.65
28.82
28.56
25.75
19.02
8.02
-6.62
-23.59
-41.20
-57.59
-70.95
-79.74
-82.99
-80.56
-73.20
-62.27
-49.23
-35.24
-21.02
-7.01
6.20
17.62
25.93
30.03
29.48
24.86
17.53
9.19
1.22
-5.58
-11.02
-15.33
-18.86
-22.03
-25.15
-28.44
-31.79
-34.82
-37.02
-38.15
-38.59
-39.45
-42.15
-47.90
-57.00
-68.66
-81.24
-92.74
-101.33
-105.74
-105.35
-100.22
-91.02
-79.03
-65.95
-53.51
-43.09
-35.27
-29.82
-25.87
-22.42
-18.74
-14.57
-10.02
-5.39
-0.97
2.98
6.11
7.88
7.75
5.41
1.00
-4.75
-10.91
-16.73
-22.00
-27.17
-33.08
-40.49
-49.70
-60.26
-71.16
-80.93
-88.13
-91.59
-90.77
-85.86
-77.67
-67.33
-55.75
-43.27
-29.56
-13.92
4.22
24.73
46.53
67.76
86.31
100.50
109.52
113.66
113.93
111.57
107.56
102.29
95.67
87.41
77.40
65.94
53.80
42.08
31.87
23.97
18.61
15.28
12.79
9.65
4.56
-3.02
-12.65
-23.05
-32.57
-39.65
-43.42
-44.03
-42.71
-41.49
-42.40
-46.45
-52.73
-58.36
-59.33
-52.01
-34.68
-8.40
23.34
55.79
84.46
106.30
120.12
126.51
127.33
125.16
122.70
122.31
125.44
132.42
142.52
154.23
165.74
175.32
181.63
183.85
181.86
176.17
167.85
158.20
148.43
139.38
131.37
124.33
118.00
112.08
106.32
100.50
94.36
87.53
79.52
69.77
57.82
43.48
27.00
9.19
-8.69
-25.21
-39.32
-50.80
-60.49
-69.89
-80.39
-92.41
-104.94
-115.81
-122.57
-123.55
-118.63
-109.33
-98.21
-88.05
-81.09
-78.73
-81.53
-89.44
-102.05
-118.62
-138.16
-159.51
-181.60
-203.65
-225.33
-246.69
-267.87
-288.76
-308.84
-327.17
-342.71
-354.81
-363.36
-368.77
-371.70
-372.61
-371.58
-368.11
-361.30
-349.94
-332.79
-308.79
-277.48
-239.26
-195.42
-147.92
-98.71
-49.11
0.81
51.95
105.26
160.42
214.80
263.53
300.72
321.49
323.87
309.58
283.40
251.43
219.13
190.06
165.87
146.97
133.47
125.49
122.98
125.08
129.82
134.47
136.34
133.71
126.36
115.50
103.14
91.24
80.98
72.57
65.34
58.27
50.49
41.64
31.99
22.29
13.52
6.60
2.18
0.50
1.45
4.64
9.61
15.87
22.97
30.43
37.67
44.07
49.03
52.09
53.10
52.15
49.57
45.83
41.47
37.00
32.91
29.61
27.28
25.99
25.55
25.69
26.07
26.36
26.29
25.63
24.16
21.74
18.25
13.60
7.69
0.53
-7.71
-16.54
-25.12
-32.26
-36.76
-37.64
-34.49
-27.59
-17.89
-6.71
4.53
14.69
23.00
29.15
33.13
35.06
35.10
33.46
30.45
26.55
22.43
18.74
15.97
14.30
13.50
13.16
12.80
12.12
11.03
9.59
7.90
6.00
3.81
1.19
-2.07
-6.13
-11.16
-17.20
-24.13
-31.56
-38.73
-44.65
-48.22
-48.58
-45.38
-38.97
-30.26
-20.53
-10.98
-2.49
4.57
10.25
14.75
18.28
20.80
22.14
22.03
20.41
17.49
13.77
9.89
6.41
3.66
1.71
0.45
-0.30
-0.63
-0.56
-0.16
0.41
0.82
0.69
-0.30
-2.38
-5.61
-9.96
-15.39
-21.77
-28.77
-35.71
-41.58
-45.18
-45.41
-41.65
-33.93
-23.06
-10.33
2.78
14.89
25.01
32.60
37.57
40.09
40.47
39.06
36.18
32.18
27.44
22.43
17.69
13.67
10.68
8.77
7.79
7.40
7.24
6.96
6.36
5.34
3.86
1.94
-0.39
-3.14
-6.28
-9.82
-13.79
-18.30
-23.43
-29.11
-34.88
-39.80
-42.59
-42.02
-37.31
-28.55
-16.74
-3.52
9.32
20.33
28.67
34.14
36.97
37.58
36.40
33.85
30.36
26.37
22.33
18.63
15.52
13.15
11.56
10.74
10.55
10.71
10.86
10.57
9.55
7.71
5.24
2.47
-0.34
-3.13
-6.03
-9.28
-13.11
-17.66
-22.90
-28.60
-34.26
-39.04
-41.85
-41.58
-37.52
-29.65
-18.77
-6.33
5.96
16.64
24.79
30.06
32.62
32.84
31.19
28.08
23.92
19.14
14.19
9.55
5.69
2.96
1.46
1.08
1.46
2.09
2.51
2.41
1.74
0.60
-0.84
-2.51
-4.44
-6.76
-9.58
-12.96
-16.89
-21.35
-26.26
-31.43
-36.39
-40.35
-42.24
-41.09
-36.32
-28.09
-17.33
-5.53
5.73
15.19
22.21
26.69
28.91
29.28
28.14
25.74
22.28
18.08
13.61
9.45
6.13
4.01
3.17
3.43
4.41
5.64
6.69
7.31
7.37
6.88
5.87
4.40
2.45
0.01
-2.98
-6.54
-10.67
-15.34
-20.36
-25.33
-29.51
-31.89
-31.49
-27.62
-20.28
-10.24
1.18
12.46
22.30
29.96
35.23
38.30
39.47
38.99
37.03
33.77
29.52
24.75
20.06
16.01
12.96
10.99
9.87
9.16
8.36
7.03
4.91
1.86
-2.11
-6.90
-12.35
-18.32
-24.65
-31.33
-38.42
-46.02
-54.16
-62.53
-70.42
-76.64
-79.82
-78.70
-72.64
-61.86
-47.51
-31.43
-15.66
-1.96
8.56
15.58
19.36
20.52
19.73
17.61
14.72
11.57
8.76
6.77
5.99
6.49
8.05
10.15
12.23
13.71
14.30
13.95
12.81
11.16
9.18
6.93
4.33
1.23
-2.52
-7.00
-12.26
-18.32
-25.06
-32.13
-38.76
-43.82
-46.05
-44.44
-38.65
-29.19
-17.30
-4.63
7.32
17.38
24.99
29.98
32.46
32.72
31.13
28.13
24.27
20.09
16.05
12.56
9.91
8.26
7.75
8.36
9.89
11.97
14.02
15.47
15.82
14.78
12.35
8.75
4.35
-0.38
-5.06
-9.41
-13.40
-17.24
-21.33
-26.10
-31.66
-37.68
-43.29
-47.21
-48.14
-45.24
-38.42
-28.44
-16.64
-4.58
6.39
15.28
21.60
25.19
26.26
25.27
22.87
19.83
16.87
14.49
12.96
12.30
12.44
13.22
14.48
16.02
17.64
19.18
20.55
21.75
22.80
23.71
24.33
24.42
23.64
21.79
18.87
15.12
10.94
6.82
3.08
-0.16
-3.03
-5.83
-8.93
-12.62
-17.01
-22.07
-27.44
-32.45
-36.14
-37.36
-35.22
-29.32
-20.15
-8.90
2.86
13.62
22.41
28.81
32.92
35.03
35.47
34.52
32.45
29.63
26.49
23.43
20.72
18.43
16.48
14.71
13.00
11.32
9.71
8.26
7.07
6.18
5.54
5.01
4.36
3.22
1.26
-1.77
-5.93
-10.97
-16.34
-21.32
-25.20
-27.47
-28.03
-27.18
-25.50
-23.75
-22.67
-22.88
-24.78
-28.44
-33.48
-39.03
-43.81
-46.39
-45.65
-41.11
-33.09
-22.60
-11.01
0.36
10.50
18.78
24.96
29.03
31.09
31.35
30.12
27.75
24.68
21.32
18.05
15.13
12.72
10.90
9.69
9.12
9.18
9.79
10.75
11.70
12.16
11.66
9.86
6.75
2.61
-1.99
-6.36
-9.96
-12.53
-14.22
-15.54
-17.17
-19.72
-23.44
-28.13
-33.07
-37.21
-39.48
-39.06
-35.56
-29.17
-20.56
-10.72
-0.70
8.57
16.37
22.23
25.95
27.51
27.12
25.09
21.88
17.97
13.84
9.88
6.39
3.62
1.72
0.80
0.82
1.64
2.93
4.28
5.26
5.51
4.87
3.34
1.10
-1.57
-4.48
-7.51
-10.63
-13.86
-17.29
-20.93
-24.90
-29.20
-33.68
-37.89
-41.04
-42.17
-40.45
-35.52
-27.71
-17.92
-7.25
3.33
13.21
22.08
29.73
35.83
40.04
42.16
42.42
41.40
39.79
37.97
35.86
32.94
28.79
23.43
17.45
11.80
7.33
4.48
3.24
3.31
4.30
5.94
8.02
10.34
12.64
14.64
16.04
16.45
15.34
12.13
6.39
-1.88
-11.98
-22.54
-31.81
-38.19
-40.71
-39.19
-34.26
-27.07
-18.96
-11.08
-4.31
0.89
4.33
6.06
6.17
4.83
2.29
-1.05
-4.63
-7.79
-9.96
-10.77
-10.17
-8.52
-6.42
-4.54
-3.38
-3.18
-3.81
-4.98
-6.40
-7.90
-9.53
-11.46
-13.87
-16.89
-20.56
-24.86
-29.66
-34.69
-39.40
-42.99
-44.50
-43.17
-38.63
-31.14
-21.53
-10.96
-0.63
8.52
15.88
21.15
24.27
25.32
24.51
22.15
18.69
14.69
10.81
7.66
5.73
5.22
5.96
7.44
8.93
9.75
9.46
8.00
5.67
2.93
0.15
-2.52
-5.23
-8.23
-11.80
-16.05
-21.04
-26.73
-32.99
-39.46
-45.42
-49.75
-51.05
-48.10
-40.28
-27.95
-12.40
4.40
20.40
33.94
44.03
50.41
53.35
53.49
51.63
48.63
45.26
42.11
39.53
37.55
36.14
35.28
35.09
35.76
37.31
39.29
40.65
39.95
35.70
26.88
13.29
-4.31
-24.35
-44.73
-63.26
-78.06
-88.02
-93.15
-94.68
-94.78
-95.90
-99.89
-107.18
-116.51
-125.34
-130.66
-130.11
-122.75
-109.19
-91.25
-71.25
-51.31
-33.01
-17.34
-4.89
4.04
9.34
11.24
10.46
8.14
5.68
4.36
4.98
7.60
11.64
16.08
19.92
22.42
23.34
22.86
21.53
20.10
19.34
19.92
22.18
26.02
30.78
35.41
38.74
39.93
38.74
35.68
31.88
28.79
27.81
29.94
35.48
44.01
54.55
65.88
76.92
87.06
96.26
104.92
113.60
122.65
131.94
140.83
148.16
152.50
152.45
146.93
135.61
119.11
99.00
77.46
56.80
38.90
24.74
14.37
7.06
1.79
-2.44
-6.27
-9.97
-13.61
-17.18
-20.74
-24.38
-28.19
-32.11
-35.92
-39.24
-41.52
-42.08
-40.07
-34.59
-24.78
-10.16
9.04
31.67
55.68
78.47
97.52
111.01
118.26
119.65
116.27
109.30
99.66
87.99
74.93
61.38
48.58
37.79
29.74
24.34
20.71
17.69
14.62
11.80
10.43
12.01
17.48
26.45
37.01
45.88
49.08
42.82
24.24
-7.72
-51.93
-104.97
-161.63
-215.85
-262.03
-296.06
-316.13
-322.75
-318.25
-305.94
-289.17
-270.62
-251.83
-233.20
-214.31
-194.53
-173.58
-151.78
-129.78
-107.90
-85.55
-61.33
-33.86
-2.89
29.97
61.48
88.09
107.39
119.00
124.39
125.69
124.42
120.93
114.73
105.35
93.12
79.05
64.32
49.45
34.20
17.96
0.58
-17.11
-33.17
-45.14
-50.77
-48.86
-39.53
-24.28
-5.60
13.57
30.57
43.43
51.33
54.49
53.96
51.09
47.15
43.00
39.17
35.94
33.48
31.86
30.97
30.43
29.71
28.30
25.94
22.86
19.62
16.89
15.06
14.08
13.40
12.27
9.93
5.87
-0.06
-7.61
-15.98
-23.86
-29.57
-31.50
-28.60
-20.85
-9.31
4.19
17.60
29.29
38.34
44.48
47.83
48.65
47.19
43.76
38.79
32.92
26.87
21.35
16.89
13.77
12.02
11.47
11.81
12.66
13.62
14.33
14.53
14.11
13.04
11.35
8.98
5.85
1.82
-3.20
-9.22
-16.07
-23.47
-30.84
-37.31
-41.66
-42.60
-39.04
-30.64
-18.05
-2.82
12.93
27.24
38.80
47.11
52.31
54.83
55.04
53.12
49.29
43.91
37.59
31.14
25.30
20.55
17.02
14.56
12.86
11.57
10.38
9.04
7.36
5.22
2.59
-0.49
-4.06
-8.17
-12.98
-18.64
-25.20
-32.55
-40.37
-48.15
-55.09
-60.17
-62.19
-59.99
-52.82
-40.62
-24.24
-5.33
14.02
31.74
46.26
56.68
62.81
64.96
63.73
59.83
53.94
46.72
38.81
30.82
23.37
16.95
11.86
8.15
5.59
3.75
2.13
0.32
-1.87
-4.39
-7.02
-9.53
-11.78
-13.76
-15.60
-17.48
-19.55
-22.00
-25.05
-28.84
-33.32
-38.06
-42.17
-44.47
-43.82
-39.56
-31.83
-21.62
-10.42
0.15
8.84
14.98
18.42
19.46
18.57
16.25
12.98
9.22
5.44
2.09
-0.38
-1.66
-1.60
-0.21
2.33
5.71
9.58
13.47
16.83
19.15
19.99
19.16
16.75
13.11
8.73
4.02
-0.74
-5.47
-10.21
-15.10
-20.23
-25.64
-31.11
-36.07
-39.54
-40.35
-37.48
-30.45
-19.68
-6.41
7.65
20.75
31.54
39.28
43.78
45.23
44.01
40.58
35.53
29.52
23.29
17.57
12.90
9.59
7.68
6.95
7.08
7.73
8.58
9.36
9.82
9.68
8.72
6.75
3.80
0.07
-4.05
-8.17
-11.99
-15.42
-18.62
-21.93
-25.74
-30.33
-35.64
-41.14
-45.86
-48.52
-47.85
-43.06
-34.05
-21.55
-6.97
8.01
21.76
33.11
41.41
46.54
48.73
48.48
46.38
43.01
38.94
34.64
30.49
26.74
23.55
20.93
18.85
17.20
15.84
14.63
13.41
11.99
10.14
7.66
4.39
0.28
-4.62
-10.12
-15.92
-21.60
-26.72
-30.92
-33.98
-35.98
-37.23
-38.20
-39.43
-41.35
-44.15
-47.69
-51.38
-54.28
-55.17
-52.92
-46.89
-37.19
-24.76
-11.13
2.05
13.45
22.34
28.53
32.23
33.72
33.31
31.31
28.14
24.42
20.86
18.11
16.56
16.24
16.81
17.72
18.46
18.75
18.56
18.04
17.40
16.65
15.66
14.14
11.87
8.76
4.92
0.64
-3.77
-8.02
-11.92
-15.36
-18.37
-21.03
-23.62
-26.43
-29.78
-33.79
-38.23
-42.39
-45.18
-45.44
-42.24
-35.27
-25.08
-12.89
-0.37
10.90
19.80
25.81
29.02
29.91
29.06
27.00
24.17
20.98
17.78
14.94
12.77
11.48
11.13
11.61
12.63
13.84
14.89
15.55
15.73
15.46
14.80
13.76
12.20
9.93
6.74
2.59
-2.31
-7.51
-12.46
-16.70
-20.03
-22.52
-24.45
-26.17
-28.04
-30.30
-33.13
-36.53
-40.22
-43.60
-45.68
-45.36
-41.72
-34.46
-24.10
-11.89
0.53
11.63
20.33
26.25
29.48
30.45
29.66
27.55
24.56
21.14
17.79
15.01
13.16
12.33
12.40
13.01
13.79
14.39
14.67
14.63
14.37
13.95
13.36
12.47
11.10
9.13
6.57
3.57
0.28
-3.25
-7.09
-11.49
-16.59
-22.40
-28.66
-35.04
-41.19
-46.88
-51.89
-55.88
-58.22
-58.13
-54.92
-48.28
-38.61
-26.88
-14.46
-2.70
7.38
15.25
20.82
24.28
25.92
26.03
24.87
22.72
19.96
17.07
14.52
12.73
11.85
11.79
12.22
12.83
13.40
13.85
14.18
14.30
13.99
12.94
10.94
8.02
4.47
0.72
-2.86
-6.10
-9.03
-11.83
-14.75
-17.96
-21.61
-25.63
-29.73
-33.33
-35.63
-35.81
-33.31
-28.05
-20.51
-11.63
-2.53
5.81
12.65
17.63
20.65
21.80
21.24
19.26
16.23
12.61
8.92
5.64
3.13
1.57
0.98
1.22
2.08
3.27
4.55
5.60
6.20
6.13
5.25
3.59
1.28
-1.43
-4.31
-7.22
-10.13
-13.18
-16.53
-20.36
-24.62
-29.12
-33.40
-36.84
-38.74
-38.42
-35.47
-29.82
-21.87
-12.40
-2.48
6.79
14.52
20.08
23.27
24.24
23.35
21.11
18.01
14.50
10.97
7.77
5.19
3.53
2.91
3.28
4.44
6.03
7.65
8.94
9.59
9.39
8.29
6.32
3.70
0.75
-2.22
-5.00
-7.57
-10.08
-12.86
-16.20
-20.25
-24.89
-29.61
-33.59
-35.81
-35.33
-31.62
-24.74
-15.34
-4.59
6.21
15.90
23.62
28.91
31.66
32.07
30.55
27.66
24.05
20.30
16.88
14.09
12.11
10.98
10.68
11.09
12.05
13.34
14.75
16.07
17.05
17.44
16.98
15.46
12.84
9.27
5.07
0.73
-3.32
-6.79
-9.69
-12.35
-15.32
-19.15
-24.10
-29.89
-35.59
-39.86
-41.36
-39.20
-33.27
-24.30
-13.61
-2.66
7.33
15.58
21.75
25.83
27.93
28.27
27.08
24.74
21.74
18.68
16.14
14.54
14.06
14.61
15.83
17.28
18.54
19.35
19.61
19.36
18.70
17.68
16.32
14.57
12.34
9.57
6.24
2.44
-1.58
-5.53
-9.09
-12.05
-14.40
-16.35
-18.25
-20.46
-23.32
-26.98
-31.38
-36.16
-40.64
-43.85
-44.71
-42.39
-36.65
-27.92
-17.27
-6.04
4.52
13.54
20.59
25.51
28.30
29.04
27.94
25.45
22.21
18.95
16.31
14.60
13.89
14.05
14.86
16.14
17.71
19.37
20.82
21.73
21.75
20.73
18.72
15.96
12.87
9.78
6.95
4.40
1.98
-0.55
-3.35
-6.46
-9.74
-12.96
-15.92
-18.55
-20.92
-23.25
-25.81
-28.85
-32.49
-36.66
-40.92
-44.48
-46.29
-45.34
-41.00
-33.32
-23.01
-11.34
0.25
10.57
18.80
24.55
27.82
28.77
27.78
25.36
22.12
18.73
15.80
13.76
12.81
12.97
14.06
15.78
17.80
19.74
21.32
22.33
22.72
22.49
21.66
20.26
18.26
15.69
12.67
9.42
6.26
3.38
0.85
-1.48
-3.84
-6.43
-9.27
-12.17
-14.89
-17.26
-19.28
-21.12
-22.99
-25.12
-27.65
-30.67
-34.19
-38.09
-41.99
-45.14
-46.60
-45.42
-41.01
-33.46
-23.47
-12.27
-1.15
8.74
16.67
22.28
25.52
26.50
25.49
22.89
19.23
15.11
11.17
7.92
5.73
4.76
4.99
6.23
8.17
10.40
12.49
13.99
14.59
14.12
12.65
10.44
7.86
5.32
3.06
1.16
-0.54
-2.29
-4.33
-6.79
-9.61
-12.60
-15.55
-18.26
-20.67
-22.87
-25.04
-27.45
-30.35
-33.84
-37.77
-41.64
-44.59
-45.62
-43.83
-38.77
-30.67
-20.34
-9.08
1.79
11.21
18.56
23.64
26.55
27.56
26.95
25.04
22.20
18.88
15.63
12.99
11.41
11.08
11.93
13.62
15.69
17.67
19.22
20.17
20.54
20.38
19.75
18.65
17.02
14.80
12.01
8.74
5.13
1.39
-2.30
-5.83
-9.14
-12.24
-15.21
-18.25
-21.59
-25.48
-29.97
-34.75
-39.12
-42.01
-42.29
-39.21
-32.65
-23.23
-12.10
-0.58
10.19
19.47
26.90
32.39
35.96
37.62
37.46
35.68
32.71
29.19
25.78
23.10
21.46
20.86
21.03
21.60
22.21
22.62
22.74
22.56
22.08
21.32
20.26
18.82
16.94
14.50
11.43
7.71
3.46
-1.06
-5.50
-9.54
-13.04
-16.00
-18.66
-21.35
-24.43
-28.23
-32.86
-38.12
-43.43
-47.80
-50.00
-48.94
-44.00
-35.40
-24.09
-11.60
0.51
11.04
19.34
25.30
29.09
31.01
31.36
30.45
28.63
26.31
23.95
21.93
20.50
19.78
19.74
20.29
21.26
22.50
23.83
25.08
26.06
26.57
26.40
25.35
23.31
20.31
16.59
12.52
8.53
4.93
1.79
-1.06
-3.96
-7.22
-10.94
-14.93
-18.85
-22.33
-25.18
-27.45
-29.43
-31.54
-34.23
-37.80
-42.25
-47.22
-51.86
-55.01
-55.40
-52.04
-44.55
-33.39
-19.72
-5.18
8.56
20.16
28.86
34.48
37.33
37.91
36.78
34.40
31.14
27.39
23.57
20.18
17.66
16.28
16.01
16.60
17.71
19.07
20.52
21.96
23.24
24.09
24.16
23.11
20.83
17.47
13.45
9.32
5.54
2.33
-0.35
-2.79
-5.31
-8.15
-11.34
-14.70
-17.96
-20.92
-23.56
-25.98
-28.36
-30.90
-33.76
-37.13
-41.14
-45.67
-50.26
-53.91
-55.36
-53.42
-47.46
-37.71
-25.30
-11.85
0.96
11.88
20.21
25.80
28.83
29.60
28.45
25.75
21.93
17.57
13.32
9.81
7.51
6.65
7.12
8.58
10.55
12.54
14.19
15.29
15.78
15.77
15.35
14.60
13.50
11.91
9.68
6.72
3.08
-1.04
-5.33
-9.52
-13.42
-16.98
-20.29
-23.54
-26.96
-30.79
-35.17
-40.06
-45.08
-49.45
-52.13
-52.05
-48.42
-41.09
-30.58
-18.03
-4.81
7.72
18.55
27.05
32.90
36.04
36.53
34.58
30.57
25.20
19.38
14.11
10.32
8.57
9.00
11.24
14.59
18.24
21.50
23.98
25.55
26.29
26.29
25.51
23.79
20.97
17.03
12.23
7.06
2.10
-2.27
-5.95
-9.16
-12.29
-15.72
-19.77
-24.59
-30.19
-36.28
-42.22
-47.02
-49.44
-48.38
-43.25
-34.27
-22.41
-9.11
4.13
16.07
25.93
33.30
38.01
40.02
39.45
36.57
31.90
26.19
20.31
15.11
11.27
9.12
8.61
9.37
10.84
12.46
13.81
14.70
15.12
15.17
14.88
14.12
12.66
10.25
6.80
2.48
-2.32
-7.10
-11.48
-15.27
-18.54
-21.59
-24.77
-28.42
-32.76
-37.85
-43.41
-48.74
-52.77
-54.25
-52.11
-45.87
-35.84
-23.08
-9.13
4.46
16.46
26.11
33.07
37.32
38.97
38.30
35.67
31.64
26.85
21.98
17.67
14.35
12.26
11.37
11.44
12.18
13.25
14.42
15.53
16.40
16.78
16.32
14.65
11.55
7.15
1.90
-3.56
-8.58
-12.85
-16.40
-19.60
-22.95
-26.97
-32.00
-38.05
-44.73
-51.11
-55.90
-57.67
-55.30
-48.39
-37.47
-23.85
-9.29
4.55
16.46
25.79
32.37
36.28
37.71
36.91
34.28
30.40
26.01
21.85
18.49
16.19
14.89
14.35
14.27
14.48
14.93
15.67
16.67
17.73
18.43
18.20
16.50
13.10
8.14
2.22
-3.83
-9.28
-13.75
-17.35
-20.59
-24.16
-28.64
-34.27
-40.86
-47.73
-53.78
-57.67
-58.08
-54.08
-45.43
-32.77
-17.55
-1.62
13.19
25.52
34.57
40.18
42.57
42.18
39.56
35.31
30.14
24.77
19.93
16.16
13.76
12.69
12.68
13.31
14.17
15.00
15.63
15.93
15.69
14.59
12.26
8.45
3.23
-2.98
-9.52
-15.69
-21.00
-25.28
-28.69
-31.71
-34.91
-38.79
-43.56
-48.89
-53.88
-57.12
-57.11
-52.75
-43.78
-31.00
-16.08
-1.03
12.36
22.95
30.32
34.64
36.36
36.04
34.24
31.64
28.92
26.78
25.69
25.83
27.04
28.90
30.92
32.72
34.10
34.94
35.21
34.76
33.35
30.77
26.83
21.59
15.34
8.57
1.80
-4.56
-10.38
-15.79
-21.14
-26.83
-33.19
-40.28
-47.82
-55.08
-60.92
-64.04
-63.30
-58.09
-48.57
-35.71
-21.04
-6.24
7.23
18.43
26.86
32.47
35.36
35.78
34.06
30.69
26.34
21.85
18.02
15.47
14.45
14.85
16.24
18.09
19.95
21.54
22.72
23.40
23.40
22.47
20.32
16.82
12.14
6.76
1.32
-3.58
-7.64
-10.99
-14.10
-17.64
-22.18
-27.99
-34.90
-42.20
-48.70
-52.90
-53.33
-48.98
-39.71
-26.41
-10.80
5.00
19.05
30.12
37.78
42.29
44.20
44.11
42.45
39.57
35.83
31.73
27.92
25.04
23.54
23.55
24.82
26.79
28.84
30.42
31.21
31.09
30.12
28.40
26.02
23.03
19.47
15.43
11.00
6.33
1.55
-3.25
-7.93
-12.37
-16.44
-20.04
-23.19
-26.09
-29.15
-32.90
-37.81
-43.95
-50.84
-57.29
-61.62
-62.12
-57.55
-47.73
-33.53
-16.78
0.30
15.72
28.09
36.82
42.00
44.06
43.58
41.20
37.57
33.45
29.62
26.74
25.21
25.04
25.92
27.40
29.07
30.68
32.08
33.17
33.79
33.64
32.44
30.04
26.49
22.05
17.14
12.17
7.48
3.19
-0.73
-4.47
-8.20
-12.03
-15.89
-19.62
-23.02
-26.02
-28.76
-31.62
-35.09
-39.57
-45.15
-51.42
-57.41
-61.68
-62.69
-59.22
-50.76
-37.81
-21.76
-4.58
11.68
25.41
35.71
42.37
45.70
46.24
44.55
41.16
36.66
31.67
26.90
23.04
20.62
19.85
20.60
22.43
24.74
26.96
28.62
29.43
29.31
28.25
26.31
23.60
20.24
16.40
12.27
8.01
3.73
-0.51
-4.73
-8.92
-13.04
-16.99
-20.68
-24.09
-27.30
-30.49
-34.00
-38.15
-43.16
-48.89
-54.69
-59.32
-61.20
-58.92
-51.75
-40.00
-25.09
-9.06
6.05
18.75
28.38
34.94
38.74
40.08
39.24
36.52
32.43
27.69
23.14
19.51
17.24
16.44
16.93
18.40
20.46
22.72
24.82
26.41
27.18
26.95
25.67
23.35
20.14
16.16
11.56
6.52
1.18
-4.24
-9.47
-14.24
-18.31
-21.58
-24.18
-26.43
-28.78
-31.76
-35.72
-40.68
-46.21
-51.35
-54.83
-55.33
-51.92
-44.37
-33.27
-19.89
-5.84
7.34
18.43
26.74
32.02
34.34
34.00
31.43
27.25
22.20
17.09
12.70
9.57
7.96
7.78
8.67
10.17
11.81
13.25
14.26
14.72
14.57
13.70
11.97
9.27
5.58
1.03
-4.07
-9.26
-14.06
-18.14
-21.41
-24.04
-26.42
-29.06
-32.45
-36.87
-42.27
-48.05
-53.11
-55.97
-55.21
-49.91
-40.01
-26.42
-10.82
4.87
18.89
30.08
37.95
42.56
44.24
43.44
40.63
36.29
31.03
25.58
20.69
16.98
14.76
13.93
14.11
14.80
15.58
16.20
16.61
16.77
16.57
15.77
14.03
11.15
7.18
2.49
-2.35
-6.75
-10.34
-13.15
-15.58
-18.26
-21.83
-26.66
-32.67
-39.16
-44.94
-48.51
-48.48
-44.03
-35.24
-23.15
-9.44
4.05
15.88
25.29
32.08
36.45
38.62
38.71
36.82
33.19
28.34
23.04
18.13
14.25
11.68
10.34
9.88
9.92
10.20
10.57
10.97
11.36
11.54
11.21
9.97
7.53
3.79
-1.02
-6.40
-11.72
-16.47
-20.38
-23.52
-26.27
-29.12
-32.60
-37.03
-42.33
-47.95
-52.83
-55.57
-54.83
-49.82
-40.58
-28.15
-14.20
-0.58
11.28
20.55
27.05
31.03
32.81
32.68
30.88
27.69
23.52
18.97
14.76
11.54
9.76
9.56
10.71
12.74
15.02
16.95
18.11
18.25
17.36
15.58
13.14
10.28
7.22
4.04
0.75
-2.78
-6.70
-11.11
-15.96
-20.93
-25.49
-28.98
-30.82
-30.79
-29.20
-26.90
-25.05
-24.64
-26.07
-28.80
-31.50
-32.46
-30.26
-24.28
-14.97
-3.58
8.26
19.06
27.81
34.05
37.74
39.09
38.37
35.85
31.88
26.88
21.43
16.27
12.09
9.43
8.48
9.10
10.76
12.82
14.70
16.01
16.62
16.57
15.96
14.89
13.39
11.44
9.00
6.07
2.67
-1.16
-5.30
-9.59
-13.85
-17.80
-21.22
-23.96
-26.02
-27.64
-29.24
-31.33
-34.32
-38.35
-43.05
-47.57
-50.66
-51.02
-47.69
-40.40
-29.69
-16.76
-3.17
9.54
20.15
27.92
32.57
34.22
33.19
30.01
25.26
19.60
13.70
8.21
3.76
0.82
-0.34
0.18
2.00
4.43
6.81
8.60
9.62
9.95
9.83
9.47
8.85
7.77
5.95
3.23
-0.30
-4.29
-8.31
-11.96
-15.13
-17.94
-20.70
-23.72
-27.26
-31.46
-36.35
-41.79
-47.41
-52.47
-55.93
-56.60
-53.60
-46.62
-36.21
-23.61
-10.42
1.81
12.00
19.57
24.48
26.94
27.28
25.85
23.01
19.22
15.01
11.04
7.90
6.01
5.49
6.18
7.66
9.49
11.33
12.97
14.26
15.02
14.99
13.86
11.40
7.59
2.67
-2.88
-8.48
-13.62
-17.97
-21.46
-24.30
-26.84
-29.56
-32.82
-36.70
-40.89
-44.67
-47.02
-46.90
-43.51
-36.61
-26.61
-14.52
-1.70
10.47
20.82
28.65
33.67
35.98
35.85
33.66
29.78
24.61
18.62
12.37
6.47
1.45
-2.31
-4.69
-5.79
-5.85
-5.09
-3.75
-2.07
-0.34
1.05
1.70
1.33
-0.18
-2.66
-5.75
-9.02
-12.05
-14.57
-16.55
-18.23
-20.05
-22.50
-25.87
-30.01
-34.22
-37.33
-38.06
-35.39
-28.96
-19.17
-7.06
5.95
18.43
29.25
37.66
43.40
46.49
47.16
45.76
42.74
38.58
33.90
29.37
25.57
22.99
21.73
21.66
22.36
23.38
24.35
25.08
25.54
25.67
25.37
24.39
22.44
19.37
15.28
10.53
5.67
1.20
-2.66
-6.04
-9.40
-13.31
-18.21
-24.19
-30.78
-36.98
-41.50
-43.09
-40.88
-34.70
-25.19
-13.61
-1.50
9.68
18.88
25.57
29.67
31.38
31.02
28.93
25.55
21.33
16.84
12.63
9.19
6.81
5.57
5.37
5.91
6.89
8.03
9.17
10.17
10.91
11.18
10.67
9.07
6.22
2.25
-2.38
-7.04
-11.18
-14.48
-17.08
-19.44
-22.17
-25.80
-30.54
-36.09
-41.68
-46.20
-48.48
-47.53
-42.89
-34.73
-23.83
-11.47
0.89
11.83
20.30
25.73
28.09
27.77
25.47
21.92
17.81
13.65
9.90
6.93
5.01
4.28
4.63
5.75
7.19
8.61
9.75
10.56
10.99
10.94
10.19
8.50
5.74
2.01
-2.35
-6.83
-11.02
-14.69
-17.89
-20.91
-24.14
-27.93
-32.42
-37.42
-42.31
-46.17
-47.87
-46.41
-41.29
-32.62
-21.27
-8.58
3.94
14.98
23.74
29.87
33.41
34.54
33.55
30.80
26.80
22.29
18.07
14.87
13.13
12.85
13.73
15.35
17.32
19.40
21.40
23.14
24.35
24.74
24.13
22.49
20.04
17.07
13.90
10.76
7.78
4.95
2.17
-0.70
-3.81
-7.18
-10.75
-14.32
-17.66
-20.61
-23.15
-25.45
-27.85
-30.76
-34.50
-39.07
-44.03
-48.38
-50.80
-49.95
-45.01
-35.96
-23.72
-9.81
3.99
16.16
25.77
32.44
36.31
37.72
37.10
34.88
31.55
27.67
23.94
21.06
19.53
19.56
20.97
23.31
26.05
28.73
31.03
32.78
33.87
34.18
33.64
32.29
30.33
28.03
25.69
23.47
21.39
19.34
17.16
14.73
12.05
9.23
6.44
3.80
1.36
-1.01
-3.52
-6.39
-9.71
-13.38
-17.16
-20.75
-23.93
-26.68
-29.16
-31.74
-34.84
-38.85
-43.95
-49.82
-55.65
-60.08
-61.60
-58.99
-51.77
-40.45
-26.38
-11.41
2.71
14.63
23.70
29.78
33.12
34.10
33.20
30.91
27.79
24.44
21.41
19.19
18.08
18.16
19.29
21.17
23.40
25.60
27.49
28.91
29.78
30.04
29.61
28.40
26.38
23.62
20.34
16.82
13.32
10.01
6.95
4.06
1.25
-1.60
-4.59
-7.78
-11.15
-14.57
-17.83
-20.71
-23.08
-25.04
-26.92
-29.23
-32.47
-36.91
-42.40
-48.28
-53.44
-56.50
-56.20
-51.77
-43.21
-31.33
-17.57
-3.60
9.10
19.47
27.08
31.92
34.25
34.43
32.84
29.89
26.05
21.87
17.96
14.87
12.97
12.38
12.95
14.34
16.15
18.04
19.80
21.30
22.47
23.17
23.22
22.40
20.57
17.79
14.32
10.59
7.03
3.94
1.37
-0.86
-3.11
-5.72
-8.85
-12.38
-16.03
-19.43
-22.33
-24.67
-26.66
-28.71
-31.24
-34.60
-38.93
-44.03
-49.33
-53.88
-56.49
-56.00
-51.65
-43.33
-31.75
-18.27
-4.53
7.96
18.12
25.45
29.90
31.72
31.25
28.83
24.87
19.91
14.61
9.68
5.79
3.42
2.70
3.45
5.22
7.42
9.53
11.15
12.11
12.40
12.13
11.44
10.42
9.13
7.54
5.61
3.26
0.51
-2.65
-6.10
-9.71
-13.31
-16.77
-20.03
-23.15
-26.36
-29.96
-34.23
-39.21
-44.51
-49.21
-52.06
-51.77
-47.52
-39.26
-27.86
-14.81
-1.79
9.79
19.03
25.62
29.69
31.53
31.45
29.79
26.91
23.25
19.35
15.78
12.99
11.31
10.85
11.54
13.16
15.36
17.72
19.85
21.43
22.34
22.59
22.24
21.36
19.83
17.49
14.18
9.91
4.97
-0.14
-4.90
-8.98
-12.39
-15.46
-18.73
-22.70
-27.70
-33.69
-40.15
-46.14
-50.35
-51.48
-48.56
-41.36
-30.47
-17.24
-3.35
9.56
20.30
28.28
33.42
35.96
36.31
34.87
32.05
28.27
24.03
19.89
16.47
14.25
13.43
13.94
15.40
17.30
19.12
20.53
21.39
21.68
21.46
20.73
19.39
17.28
14.21
10.13
5.17
-0.32
-5.83
-10.85
-15.05
-18.37
-21.04
-23.48
-26.13
-29.38
-33.42
-38.14
-43.08
-47.30
-49.57
-48.63
-43.61
-34.43
-21.90
-7.59
6.66
19.22
29.02
35.73
39.47
40.65
39.68
36.95
32.88
28.01
23.04
18.71
15.62
14.08
13.97
14.92
16.40
17.98
19.39
20.52
21.31
21.66
21.39
20.34
18.40
15.58
11.97
7.69
2.90
-2.22
-7.40
-12.34
-16.78
-20.57
-23.80
-26.76
-29.84
-33.44
-37.88
-43.24
-49.22
-55.08
-59.58
-61.32
-59.06
-52.22
-41.16
-27.18
-12.07
2.36
14.73
24.28
30.82
34.49
35.58
34.48
31.63
27.62
23.15
18.97
15.73
13.89
13.63
14.76
16.80
19.08
20.94
21.90
21.77
20.66
18.90
16.81
14.60
12.24
9.56
6.44
2.92
-0.67
-3.83
-6.10
-7.32
-7.67
-7.72
-8.17
-9.61
-12.34
-16.20
-20.60
-24.50
-26.60
-25.59
-20.48
-11.07
1.94
17.02
32.19
45.68
56.29
63.62
67.84
69.23
67.86
63.49
55.80
44.88
31.54
17.24
3.80
-7.23
-14.99
-19.50
-21.46
-21.89
-21.73
-21.59
-21.72
-22.12
-22.70
-23.48
-24.64
-26.49
-29.33
-33.29
-38.15
-43.38
-48.33
-52.45
-55.54
-57.82
-59.76
-61.84
-64.38
-67.46
-70.93
-74.44
-77.39
-78.88
-77.83
-73.13
-64.09
-50.75
-34.07
-15.72
2.37
18.47
31.50
41.01
47.09
50.08
50.36
48.37
44.57
39.63
34.38
29.67
26.23
24.44
24.27
25.31
26.93
28.50
29.61
30.05
29.90
29.28
28.23
26.66
24.31
20.96
16.51
11.14
5.28
-0.55
-5.91
-10.56
-14.54
-18.12
-21.70
-25.72
-30.51
-36.22
-42.60
-48.89
-53.80
-55.75
-53.34
-45.88
-33.79
-18.50
-2.07
13.42
26.47
36.31
42.88
46.44
47.38
46.03
42.77
38.16
32.89
27.78
23.58
20.81
19.63
19.89
21.14
22.84
24.47
25.70
26.39
26.58
26.35
25.69
24.44
22.36
19.22
14.98
9.84
4.21
-1.49
-6.86
-11.73
-16.11
-20.19
-24.27
-28.73
-33.93
-40.05
-46.88
-53.68
-59.17
-61.81
-60.26
-53.84
-42.84
-28.41
-12.27
3.80
18.34
30.36
39.34
45.11
47.75
47.51
44.87
40.50
35.22
29.90
25.34
22.05
20.29
19.97
20.71
22.01
23.39
24.47
25.15
25.43
25.36
24.87
23.77
21.77
18.61
14.21
8.76
2.68
-3.47
-9.12
-13.93
-17.83
-21.08
-24.18
-27.76
-32.31
-38.07
-44.76
-51.51
-56.93
-59.44
-57.68
-51.01
-39.76
-25.22
-9.29
6.03
19.14
29.15
35.83
39.44
40.43
39.31
36.51
32.54
27.94
23.33
19.33
16.51
15.20
15.49
17.15
19.69
22.51
25.02
26.78
27.59
27.46
26.52
24.90
22.63
19.64
15.75
10.90
5.17
-1.08
-7.32
-13.01
-17.75
-21.50
-24.54
-27.41
-30.72
-34.95
-40.29
-46.57
-53.15
-59.03
-62.89
-63.39
-59.49
-50.88
-38.11
-22.58
-6.22
9.04
21.70
30.93
36.56
38.89
38.45
35.79
31.50
26.22
20.70
15.71
11.94
9.82
9.46
10.65
12.91
15.70
18.47
20.78
22.35
23.04
22.82
21.74
19.85
17.17
13.68
9.46
4.62
-0.59
-5.83
-10.78
-15.19
-19.01
-22.32
-25.39
-28.50
-31.94
-35.94
-40.61
-45.83
-51.15
-55.69
-58.19
-57.35
-52.21
-42.54
-29.08
-13.36
2.70
17.31
29.23
37.97
43.58
46.41
46.86
45.27
41.97
37.37
32.14
27.09
23.05
20.66
20.13
21.23
23.38
25.93
28.39
30.49
32.16
33.31
33.69
32.92
30.65
26.84
21.88
16.59
11.90
8.48
6.49
5.52
4.84
3.70
1.63
-1.36
-4.93
-8.58
-11.92
-14.82
-17.44
-20.15
-23.46
-27.83
-33.55
-40.54
-48.15
-55.19
-59.97
-60.78
-56.44
-46.75
-32.70
-16.23
0.39
15.14
26.77
34.83
39.45
41.03
40.03
36.91
32.21
26.68
21.20
16.70
13.87
13.00
13.92
16.16
19.12
22.30
25.37
28.16
30.46
32.04
32.54
31.68
29.34
25.68
21.10
16.15
11.34
7.05
3.43
0.39
-2.35
-5.20
-8.54
-12.53
-17.02
-21.56
-25.61
-28.78
-31.04
-32.77
-34.60
-37.19
-41.00
-46.11
-52.21
-58.56
-63.94
-66.88
-65.88
-59.92
-48.85
-33.63
-16.12
1.47
17.18
29.79
38.89
44.68
47.50
47.71
45.57
41.46
35.99
30.03
24.53
20.30
17.79
17.01
17.69
19.33
21.44
23.62
25.56
27.07
28.03
28.34
27.90
26.61
24.34
21.05
16.82
11.88
6.63
1.52
-3.08
-7.02
-10.47
-13.79
-17.36
-21.40
-25.82
-30.26
-34.23
-37.41
-39.69
-41.36
-42.93
-45.08
-48.43
-53.40
-59.92
-67.23
-73.82
-77.61
-76.48
-68.94
-54.80
-35.32
-13.03
9.12
28.52
43.54
53.73
59.48
61.59
60.81
57.74
52.91
46.95
40.70
35.07
30.78
28.17
27.03
26.79
26.78
26.52
25.88
25.05
24.29
23.69
23.00
21.78
19.58
16.19
11.78
6.82
1.86
-2.76
-6.95
-10.95
-15.02
-19.35
-23.87
-28.34
-32.43
-35.87
-38.57
-40.63
-42.41
-44.41
-47.17
-51.06
-56.05
-61.47
-66.05
-68.18
-66.38
-59.87
-48.85
-34.52
-18.70
-3.26
10.35
21.28
29.31
34.56
37.30
37.79
36.28
33.11
28.73
23.72
18.77
14.51
11.45
9.91
9.97
11.46
14.03
17.17
20.27
22.74
24.17
24.34
23.33
21.37
18.70
15.53
11.93
7.88
3.39
-1.45
-6.48
-11.48
-16.25
-20.65
-24.62
-28.17
-31.47
-34.87
-38.81
-43.68
-49.49
-55.61
-60.73
-63.17
-61.38
-54.57
-43.00
-28.00
-11.56
4.27
17.83
28.16
34.98
38.59
39.54
38.52
36.15
32.93
29.25
25.45
21.90
19.02
17.20
16.69
17.49
19.29
21.64
24.04
26.07
27.47
28.10
27.92
26.92
25.10
22.44
18.94
14.62
9.54
3.88
-2.06
-7.89
-13.25
-17.90
-21.91
-25.59
-29.47
-34.07
-39.69
-46.17
-52.82
-58.44
-61.62
-61.04
-55.87
-46.07
-32.45
-16.49
-0.05
15.10
27.61
36.75
42.37
44.79
44.58
42.35
38.68
34.14
29.21
24.43
20.27
17.17
15.42
15.11
16.12
18.09
20.55
22.96
24.86
25.92
25.92
24.81
22.71
19.80
16.32
12.48
8.37
4.01
-0.63
-5.53
-10.55
-15.46
-20.01
-24.07
-27.69
-31.15
-34.86
-39.23
-44.48
-50.46
-56.48
-61.33
-63.50
-61.60
-54.85
-43.46
-28.62
-12.24
3.66
17.45
28.16
35.48
39.60
40.87
39.72
36.59
32.08
26.86
21.77
17.52
14.61
13.21
13.21
14.27
16.02
18.08
20.06
21.66
22.60
22.71
21.95
20.43
18.23
15.46
12.06
7.96
3.15
-2.22
-7.84
-13.31
-18.27
-22.55
-26.19
-29.39
-32.44
-35.63
-39.27
-43.60
-48.70
-54.26
-59.50
-63.14
-63.73
-60.07
-51.68
-39.09
-23.75
-7.61
7.41
19.90
29.15
35.05
37.91
38.16
36.23
32.60
27.79
22.52
17.57
13.69
11.44
11.03
12.29
14.72
17.63
20.35
22.35
23.38
23.44
22.66
21.20
19.16
16.50
13.13
8.99
4.11
-1.32
-6.97
-12.48
-17.51
-21.90
-25.64
-28.92
-32.07
-35.46
-39.45
-44.19
-49.48
-54.66
-58.63
-60.06
-57.78
-51.18
-40.45
-26.68
-11.52
3.24
16.11
26.18
33.12
37.03
38.18
36.88
33.51
28.63
22.99
17.54
13.24
10.77
10.40
11.89
14.61
17.79
20.75
23.08
24.61
25.40
25.55
25.12
24.04
22.09
19.01
14.70
9.26
3.13
-3.09
-8.77
-13.54
-17.35
-20.53
-23.61
-27.16
-31.64
-37.21
-43.63
-50.15
-55.57
-58.39
-57.24
-51.33
-40.75
-26.57
-10.52
5.42
19.60
30.95
39.07
44.09
46.33
46.24
44.20
40.62
35.99
30.89
26.03
22.11
19.70
19.04
20.02
22.16
24.76
27.10
28.64
29.10
28.52
27.10
25.04
22.45
19.25
15.34
10.65
5.30
-0.41
-6.07
-11.30
-15.92
-19.94
-23.51
-26.86
-30.20
-33.78
-37.90
-42.84
-48.66
-54.92
-60.51
-63.87
-63.37
-57.91
-47.43
-32.97
-16.38
0.23
15.06
26.94
35.38
40.43
42.47
42.05
39.77
36.29
32.23
28.15
24.55
21.77
20.10
19.67
20.51
22.47
25.22
28.32
31.25
33.56
34.86
34.90
33.55
30.85
27.03
22.43
17.46
12.41
7.43
2.45
-2.64
-7.91
-13.23
-18.30
-22.81
-26.60
-29.83
-32.91
-36.48
-41.08
-46.98
-53.94
-61.05
-66.86
-69.61
-67.81
-60.67
-48.51
-32.68
-15.22
1.75
16.52
28.09
36.18
41.00
42.95
42.53
40.23
36.62
32.34
28.07
24.42
21.84
20.54
20.51
21.59
23.49
25.89
28.41
30.61
32.08
32.43
31.41
29.03
25.46
21.08
16.33
11.56
7.03
2.77
-1.31
-5.36
-9.53
-13.81
-18.07
-22.10
-25.68
-28.78
-31.55
-34.44
-38.04
-42.89
-49.18
-56.37
-63.17
-67.70
-68.04
-62.93
-52.24
-37.14
-19.68
-2.21
13.34
25.73
34.53
39.87
42.16
41.89
39.58
35.76
31.01
25.97
21.26
17.46
15.01
14.12
14.72
16.54
19.12
21.94
24.51
26.38
27.22
26.82
25.14
22.38
18.86
14.94
10.84
6.64
2.31
-2.16
-6.68
-11.10
-15.23
-18.99
-22.44
-25.71
-28.92
-32.24
-35.83
-39.95
-44.77
-50.21
-55.64
-59.83
-61.17
-58.17
-50.12
-37.37
-21.39
-4.32
11.63
24.82
34.41
40.37
43.17
43.39
41.50
37.89
32.97
27.34
21.79
17.22
14.41
13.74
15.18
18.29
22.42
26.90
31.15
34.73
37.28
38.57
38.38
36.60
33.25
28.50
22.64
16.09
9.33
2.79
-3.22
-8.59
-13.42
-17.93
-22.42
-27.14
-32.28
-37.98
-44.32
-51.15
-57.97
-63.73
-67.00
-66.28
-60.49
-49.50
-34.26
-16.61
1.24
17.31
30.25
39.49
45.04
47.23
46.49
43.29
38.20
32.03
25.74
20.40
16.89
15.66
16.56
18.94
21.91
24.62
26.56
27.62
27.96
27.77
27.07
25.60
22.97
18.86
13.21
6.36
-1.09
-8.43
-15.09
-20.79
-25.60
-29.84
-33.96
-38.44
-43.66
-49.80
-56.72
-63.76
-69.69
-72.90
-71.82
-65.46
-53.84
-38.11
-20.19
-2.23
14.01
27.47
37.76
44.87
48.90
49.94
48.11
43.79
37.70
30.84
24.23
18.72
14.72
12.22
10.88
10.32
10.30
10.72
11.58
12.70
13.62
13.65
12.07
8.51
3.12
-3.38
-10.07
-16.17
-21.29
-25.52
-29.30
-33.19
-37.69
-43.10
-49.40
-56.06
-61.99
-65.63
-65.35
-59.99
-49.37
-34.55
-17.55
-0.73
13.81
24.76
31.69
34.81
34.75
32.27
28.18
23.30
18.43
14.32
11.52
10.32
10.73
12.56
15.47
19.05
22.80
26.19
28.76
30.16
30.24
29.04
26.77
23.67
19.94
15.69
11.01
5.85
0.09
-6.42
-13.79
-21.78
-29.63
-36.05
-39.48
-38.57
-32.80
-22.74
-9.90
3.61
15.80
25.23
31.23
33.82
33.37
30.41
25.44
18.95
11.48
3.67
-3.79
-10.23
-15.18
-18.38
-19.91
-20.07
-19.31
-18.17
-17.07
-16.32
-16.05
-16.24
-16.80
-17.69
-18.89
-20.46
-22.54
-25.26
-28.83
-33.45
-39.21
-45.89
-52.71
-58.34
-61.11
-59.49
-52.60
-40.68
-25.03
-7.70
9.11
23.62
34.77
42.25
46.27
47.33
45.90
42.41
37.32
31.19
24.76
18.89
14.36
11.65
10.81
11.48
13.04
14.80
16.20
16.89
16.66
15.48
13.38
10.51
7.03
3.11
-1.17
-5.85
-11.10
-17.12
-24.03
-31.73
-39.80
-47.32
-52.98
-55.30
-52.98
-45.39
-32.87
-16.76
0.95
18.08
32.83
44.09
51.48
55.18
55.71
53.63
49.52
43.98
37.67
31.36
25.78
21.56
19.02
18.14
18.60
19.87
21.39
22.63
23.16
22.66
20.94
17.93
13.70
8.50
2.70
-3.28
-9.10
-14.57
-19.73
-24.92
-30.60
-37.22
-44.82
-52.81
-59.91
-64.33
-64.29
-58.65
-47.31
-31.39
-12.91
5.80
22.65
36.23
45.92
51.65
53.77
52.80
49.38
44.31
38.54
33.05
28.67
25.89
24.73
24.87
25.76
26.92
28.01
28.91
29.56
29.90
29.72
28.71
26.55
23.00
18.11
12.16
5.62
-0.95
-7.10
-12.58
-17.41
-21.90
-26.55
-31.92
-38.36
-45.82
-53.64
-60.51
-64.74
-64.68
-59.23
-48.34
-33.07
-15.40
2.36
18.15
30.61
39.20
44.06
45.71
44.72
41.69
37.16
31.82
26.39
21.62
18.12
16.23
15.95
17.00
18.93
21.24
23.44
25.13
25.97
25.73
24.35
21.95
18.76
15.10
11.24
7.29
3.21
-1.08
-5.66
-10.43
-15.20
-19.69
-23.68
-27.08
-29.97
-32.61
-35.36
-38.70
-43.04
-48.51
-54.75
-60.71
-64.78
-65.18
-60.49
-50.30
-35.46
-17.83
0.16
16.27
28.97
37.63
42.38
43.81
42.66
39.64
35.42
30.67
26.07
22.25
19.65
18.40
18.34
19.10
20.26
21.47
22.52
23.33
23.86
23.98
23.50
22.23
20.01
16.91
13.15
9.04
4.90
0.86
-3.08
-7.04
-11.09
-15.21
-19.23
-22.93
-26.15
-28.87
-31.35
-34.04
-37.49
-42.09
-47.77
-53.79
-58.76
-60.94
-58.81
-51.63
-39.81
-24.84
-8.82
6.15
18.58
27.78
33.76
36.90
37.58
36.12
32.74
27.85
22.08
16.31
11.46
8.24
6.97
7.50
9.28
11.64
13.92
15.75
17.00
17.74
18.04
17.86
16.99
15.16
12.21
8.21
3.45
-1.62
-6.63
-11.29
-15.51
-19.28
-22.66
-25.69
-28.46
-31.13
-33.95
-37.24
-41.24
-45.91
-50.82
-55.04
-57.27
-56.20
-50.96
-41.43
-28.48
-13.66
1.15
14.30
24.71
31.98
36.18
37.63
36.72
33.80
29.27
23.72
17.91
12.70
8.84
6.73
6.36
7.34
9.09
11.06
12.93
14.58
16.04
17.29
18.15
18.26
17.23
14.77
10.92
6.03
0.75
-4.25
-8.47
-11.80
-14.52
-17.16
-20.29
-24.31
-29.31
-34.98
-40.63
-45.27
-47.69
-46.76
-41.78
-32.71
-20.35
-6.18
8.07
20.82
31.09
38.53
43.28
45.63
45.81
43.93
40.15
34.84
28.69
22.63
17.52
13.96
12.10
11.66
12.15
13.05
14.03
14.94
15.76
16.40
16.61
16.05
14.35
11.34
7.17
2.30
-2.65
-7.09
-10.73
-13.63
-16.23
-19.18
-23.12
-28.45
-35.09
-42.34
-48.97
-53.40
-54.15
-50.26
-41.68
-29.31
-14.84
-0.17
13.01
23.58
31.12
35.74
37.76
37.54
35.40
31.69
26.83
21.46
16.27
11.95
8.96
7.45
7.25
8.01
9.29
10.77
12.30
13.79
15.05
15.71
15.19
12.97
8.85
3.12
-3.44
-9.86
-15.34
-19.51
-22.55
-24.98
-27.45
-30.58
-34.73
-40.05
-46.31
-52.84
-58.52
-61.93
-61.69
-56.97
-47.83
-35.27
-20.97
-6.79
5.74
15.75
22.98
27.58
29.80
29.89
28.07
24.67
20.19
15.34
10.91
7.53
5.58
5.12
5.96
7.73
10.03
12.46
14.66
16.31
17.18
17.13
16.14
14.30
11.77
8.75
5.44
1.99
-1.51
-5.04
-8.61
-12.23
-15.84
-19.32
-22.53
-25.39
-28.04
-30.85
-34.40
-39.12
-45.00
-51.37
-56.86
-59.75
-58.54
-52.46
-41.79
-27.79
-12.26
2.90
16.18
26.64
33.92
38.04
39.31
38.15
35.13
30.93
26.33
22.15
19.05
17.45
17.34
18.42
20.14
22.01
23.69
25.13
26.46
27.81
29.19
30.37
30.96
30.54
28.91
26.15
22.68
19.10
16.02
13.86
12.67
12.12
11.64
10.56
8.39
4.99
0.59
-4.36
-9.40
-14.26
-18.95
-23.76
-29.03
-35.00
-41.58
-48.24
-54.00
-57.57
-57.65
-53.35
-44.47
-31.74
-16.62
-0.99
13.47
25.60
34.96
41.63
45.84
47.68
47.09
44.00
38.64
31.73
24.36
17.78
12.93
10.20
9.40
9.97
11.25
12.77
14.21
15.36
15.92
15.48
13.61
10.10
5.14
-0.65
-6.42
-11.37
-15.09
-17.73
-19.82
-22.04
-24.85
-28.28
-31.99
-35.48
-38.35
-40.46
-42.00
-43.39
-45.08
-47.51
-50.95
-55.46
-60.67
-65.76
-69.44
-70.21
-66.84
-58.80
-46.55
-31.44
-15.31
0.00
13.17
23.47
30.72
35.08
36.78
36.14
33.53
29.49
24.67
19.85
15.71
12.78
11.33
11.35
12.58
14.64
17.04
19.35
21.15
22.18
22.25
21.33
19.49
16.91
13.79
10.32
6.62
2.76
-1.22
-5.27
-9.27
-13.10
-16.61
-19.66
-22.25
-24.46
-26.55
-28.91
-32.04
-36.23
-41.38
-46.80
-51.21
-53.10
-51.18
-44.89
-34.65
-21.71
-7.80
5.42
16.72
25.46
31.48
34.92
35.97
34.87
31.92
27.58
22.49
17.46
13.26
10.46
9.32
9.72
11.26
13.45
15.76
17.81
19.36
20.29
20.56
20.12
18.93
16.92
14.06
10.43
6.30
2.08
-1.85
-5.24
-8.11
-10.74
-13.50
-16.76
-20.70
-25.38
-30.66
-36.20
-41.39
-45.29
-46.75
-44.72
-38.62
-28.68
-15.92
-1.95
11.50
23.08
32.00
38.08
41.55
42.76
42.03
39.59
35.72
30.86
25.67
20.95
17.44
15.50
15.05
15.64
16.70
17.78
18.62
19.21
19.52
19.46
18.78
17.21
14.60
10.96
6.51
1.58
-3.49
-8.37
-12.82
-16.73
-20.16
-23.31
-26.55
-30.31
-34.89
-40.29
-45.97
-50.88
-53.60
-52.76
-47.47
-37.80
-24.70
-9.84
4.93
18.09
28.71
36.41
41.20
43.25
42.78
40.11
35.72
30.31
24.72
19.77
16.11
14.04
13.46
13.99
15.10
16.34
17.47
18.44
19.32
20.07
20.44
20.01
18.31
15.06
10.38
4.75
-1.14
-6.64
-11.37
-15.35
-18.85
-22.32
-26.22
-30.93
-36.62
-43.17
-50.01
-56.09
-59.98
-60.20
-55.73
-46.41
-33.14
-17.62
-1.87
12.30
23.72
31.92
36.99
39.29
39.25
37.31
33.88
29.51
24.82
20.53
17.26
15.44
15.21
16.34
18.38
20.75
22.91
24.46
25.25
25.30
24.68
23.45
21.57
18.88
15.22
10.55
5.04
-0.90
-6.76
-12.09
-16.69
-20.62
-24.19
-27.78
-31.77
-36.43
-41.92
-48.12
-54.52
-60.13
-63.57
-63.39
-58.55
-48.87
-35.23
-19.30
-3.10
11.59
23.60
32.43
38.13
40.97
41.29
39.44
35.83
31.03
25.74
20.78
16.93
14.79
14.64
16.31
19.22
22.55
25.45
27.31
27.93
27.45
26.19
24.40
22.14
19.25
15.53
10.90
5.53
-0.16
-5.70
-10.74
-15.12
-18.92
-22.39
-25.84
-29.57
-33.91
-39.04
-45.02
-51.47
-57.50
-61.72
-62.56
-58.80
-50.08
-37.09
-21.45
-5.19
9.89
22.60
32.41
39.29
43.36
44.71
43.46
39.90
34.68
28.79
23.34
19.28
17.15
16.96
18.28
20.45
22.82
24.85
26.26
26.91
26.80
25.92
24.24
21.67
18.17
13.76
8.61
3.06
-2.48
-7.64
-12.26
-16.40
-20.35
-24.47
-29.08
-34.37
-40.39
-46.98
-53.74
-59.91
-64.38
-65.83
-63.14
-55.70
-43.84
-28.79
-12.36
3.50
17.17
27.68
34.68
38.29
38.85
36.83
32.82
27.55
21.90
16.80
13.00
10.92
10.53
11.43
13.08
14.97
16.84
18.58
20.13
21.29
21.66
20.74
18.20
14.03
8.63
2.66
-3.17
-8.37
-12.80
-16.66
-20.44
-24.72
-29.98
-36.42
-43.69
-50.88
-56.58
-59.20
-57.49
-50.88
-39.79
-25.54
-9.98
5.01
17.88
27.68
34.07
37.14
37.27
35.02
30.99
25.88
20.44
15.42
11.42
8.89
7.92
8.40
10.00
12.30
14.87
17.30
19.17
20.11
19.81
18.11
15.05
10.91
6.11
1.14
-3.59
-7.85
-11.68
-15.40
-19.51
-24.54
-30.76
-37.91
-45.05
-50.64
-52.95
-50.62
-43.17
-31.19
-16.20
-0.16
15.08
28.14
38.27
45.25
49.11
50.03
48.28
44.28
38.77
32.73
27.27
23.38
21.55
21.74
23.33
25.50
27.49
28.85
29.45
29.42
28.90
27.91
26.29
23.83
20.33
15.73
10.19
4.06
-2.14
-7.89
-12.82
-16.81
-20.10
-23.17
-26.69
-31.27
-37.25
-44.45
-52.05
-58.62
-62.40
-61.79
-55.86
-44.71
-29.54
-12.31
4.77
19.86
31.81
40.21
45.22
47.28
46.91
44.58
40.91
36.59
32.45
29.29
27.72
27.92
29.67
32.37
35.30
37.85
39.70
40.82
41.37
41.43
40.95
39.67
37.29
33.65
28.91
23.51
18.03
12.99
8.60
4.77
1.17
-2.57
-6.71
-11.27
-16.04
-20.65
-24.73
-28.04
-30.61
-32.74
-34.95
-37.87
-42.05
-47.75
-54.78
-62.28
-68.78
-72.42
-71.44
-64.82
-52.64
-36.24
-17.81
0.25
15.99
28.31
36.92
42.12
44.38
44.23
42.16
38.74
34.68
30.79
27.80
26.23
26.23
27.61
29.91
32.57
35.11
37.19
38.67
39.47
39.54
38.76
37.04
34.35
30.83
26.80
22.64
18.68
15.04
11.71
8.59
5.59
2.72
-0.03
-2.67
-5.32
-8.18
-11.40
-15.00
-18.85
-22.68
-26.26
-29.39
-32.05
-34.35
-36.63
-39.38
-43.18
-48.45
-55.12
-62.45
-68.89
-72.51
-71.53
-64.94
-52.96
-36.95
-19.06
-1.55
13.75
25.76
34.18
39.22
41.35
41.07
38.87
35.25
30.89
26.51
22.92
20.72
20.24
21.37
23.69
26.62
29.55
32.07
33.91
35.01
35.35
34.94
33.79
31.93
29.38
26.23
22.59
18.63
14.57
10.62
6.94
3.59
0.52
-2.41
-5.36
-8.46
-11.75
-15.17
-18.63
-22.05
-25.35
-28.48
-31.39
-34.07
-36.61
-39.25
-42.36
-46.35
-51.46
-57.50
-63.66
-68.53
-70.36
-67.61
-59.44
-46.16
-29.13
-10.39
7.90
24.00
36.85
46.11
51.81
54.22
53.67
50.61
45.68
39.74
33.79
28.79
25.36
23.71
23.53
24.23
25.13
25.75
25.83
25.43
24.65
23.54
21.93
19.55
16.16
11.73
6.53
1.08
-4.04
-8.38
-11.84
-14.71
-17.45
-20.53
-24.16
-28.12
-31.95
-35.07
-37.14
-38.19
-38.59
-38.96
-39.88
-41.86
-45.08
-49.38
-54.19
-58.48
-60.90
-60.13
-55.25
-46.17
-33.70
-19.36
-4.92
8.07
18.70
26.62
31.97
35.03
36.04
35.17
32.65
28.86
24.45
20.18
16.77
14.68
14.01
14.57
15.98
17.88
19.93
21.86
23.40
24.24
24.12
22.95
20.78
17.85
14.43
10.73
6.82
2.68
-1.68
-6.15
-10.55
-14.65
-18.30
-21.48
-24.34
-27.09
-30.06
-33.55
-37.80
-42.80
-48.19
-53.09
-56.20
-56.14
-51.91
-43.33
-31.12
-16.80
-2.20
11.05
21.82
29.64
34.54
36.85
37.01
35.46
32.65
28.94
24.75
20.49
16.59
13.46
11.47
10.84
11.56
13.38
15.83
18.37
20.48
21.76
21.99
21.14
19.30
16.62
13.28
9.44
5.28
0.94
-3.43
-7.74
-11.91
-15.90
-19.68
-23.21
-26.47
-29.56
-32.68
-36.16
-40.31
-45.23
-50.56
-55.33
-58.17
-57.61
-52.68
-43.30
-30.39
-15.63
-0.92
12.15
22.64
30.22
35.03
37.37
37.48
35.63
32.11
27.37
22.03
16.79
12.36
9.32
7.98
8.31
9.95
12.26
14.56
16.31
17.18
17.16
16.38
15.01
13.13
10.73
7.73
4.09
-0.08
-4.60
-9.18
-13.53
-17.42
-20.74
-23.59
-26.20
-28.95
-32.24
-36.34
-41.28
-46.71
-51.86
-55.68
-56.98
-54.79
-48.74
-39.15
-27.09
-14.02
-1.44
9.46
18.03
24.10
27.77
29.25
28.68
26.22
22.18
17.10
11.75
7.05
3.81
2.49
3.05
5.03
7.73
10.42
12.65
14.25
15.27
15.80
15.81
15.06
13.25
10.18
5.93
0.86
-4.47
-9.49
-13.88
-17.57
-20.76
-23.83
-27.19
-31.24
-36.18
-41.92
-47.91
-53.16
-56.36
-56.23
-51.98
-43.55
-31.79
-18.15
-4.32
8.30
18.76
26.71
32.12
35.12
35.85
34.47
31.33
27.05
22.43
18.33
15.37
13.82
13.53
14.16
15.34
16.77
18.26
19.64
20.68
21.12
20.68
19.16
16.53
12.91
8.59
3.94
-0.61
-4.78
-8.47
-11.82
-15.21
-19.08
-23.81
-29.50
-35.90
-42.31
-47.62
-50.52
-49.80
-44.71
-35.28
-22.42
-7.74
6.90
19.85
30.11
37.30
41.59
43.35
42.94
40.64
36.76
31.80
26.49
21.68
18.15
16.33
16.18
17.28
19.00
20.74
22.13
23.04
23.54
23.70
23.50
22.74
21.10
18.31
14.23
8.98
2.97
-3.23
-9.06
-14.12
-18.26
-21.67
-24.77
-28.13
-32.29
-37.56
-43.92
-50.75
-56.92
-60.98
-61.51
-57.59
-49.07
-36.69
-21.81
-6.12
8.77
21.63
31.69
38.63
42.47
43.51
42.20
39.15
35.08
30.75
26.92
24.18
22.85
22.92
24.05
25.74
27.52
29.11
30.44
31.57
32.47
32.99
32.77
31.42
28.72
24.71
19.77
14.49
9.47
5.08
1.34
-2.02
-5.43
-9.23
-13.47
-17.89
-22.04
-25.48
-28.03
-29.94
-31.82
-34.49
-38.67
-44.65
-52.11
-59.98
-66.63
-70.21
-69.18
-62.76
-51.24
-35.91
-18.73
-1.82
13.10
24.98
33.46
38.71
41.08
41.01
38.95
35.45
31.20
27.04
23.77
21.99
21.89
23.33
25.81
28.75
31.63
34.07
35.87
36.96
37.30
36.83
35.43
33.04
29.68
25.56
21.06
16.61
12.61
9.22
6.36
3.70
0.84
-2.57
-6.63
-11.20
-15.87
-20.22
-23.94
-26.99
-29.57
-32.13
-35.17
-39.18
-44.49
-51.10
-58.56
-65.82
-71.28
-73.19
-70.18
-61.76
-48.66
-32.59
-15.80
-0.33
12.38
21.74
27.80
30.91
31.49
29.95
26.72
22.38
17.74
13.66
10.85
9.67
10.07
11.68
14.01
16.63
19.29
21.81
24.03
25.66
26.39
25.97
24.34
21.67
18.30
14.63
10.94
7.35
3.86
0.31
-3.42
-7.40
-11.51
-15.50
-19.05
-21.93
-24.17
-26.15
-28.47
-31.75
-36.37
-42.22
-48.61
-54.29
-57.77
-57.63
-52.99
-43.75
-30.68
-15.28
0.63
15.33
27.58
36.78
42.85
46.06
46.76
45.33
42.10
37.53
32.27
27.09
22.80
20.01
19.01
19.67
21.55
24.07
26.70
28.99
30.65
31.44
31.19
29.78
27.22
23.66
19.38
14.70
9.86
5.03
0.29
-4.29
-8.58
-12.39
-15.53
-17.95
-19.77
-21.38
-23.33
-26.24
-30.65
-36.77
-44.32
-52.41
-59.59
-64.11
-64.40
-59.54
-49.57
-35.55
-19.29
-2.82
12.05
24.08
32.74
38.05
40.38
40.21
38.04
34.38
29.79
24.94
20.58
17.39
15.84
16.05
17.78
20.55
23.77
26.92
29.60
31.50
32.41
32.19
30.79
28.31
25.01
21.19
17.08
12.75
8.08
2.92
-2.81
-9.00
-15.33
-21.40
-26.85
-31.53
-35.55
-39.31
-43.40
-48.41
-54.66
-61.88
-69.04
-74.51
-76.43
-73.32
-64.58
-50.80
-33.55
-14.97
2.86
18.28
30.36
38.79
43.73
45.55
44.73
41.77
37.30
32.01
26.67
22.07
18.81
17.23
17.32
18.78
21.12
23.81
26.37
28.43
29.69
29.94
29.04
26.97
23.83
19.86
15.39
10.66
5.82
0.86
-4.30
-9.64
-14.98
-19.99
-24.36
-27.97
-31.02
-34.03
-37.63
-42.39
-48.50
-55.73
-63.32
-70.04
-74.40
-74.97
-70.72
-61.40
-47.68
-31.04
-13.39
3.41
17.92
29.33
37.34
42.02
43.65
42.57
39.27
34.34
28.56
22.76
17.74
14.05
11.94
11.30
11.73
12.73
13.92
15.18
16.67
18.65
21.26
24.33
27.32
29.58
30.55
30.00
28.07
25.19
21.78
18.15
14.41
10.62
6.84
3.21
-0.09
-3.05
-5.95
-9.33
-13.92
-20.17
-27.96
-36.34
-43.58
-47.69
-47.12
-41.32
-30.99
-17.86
-4.05
8.56
18.73
25.91
30.09
31.43
30.15
26.48
20.79
13.66
5.93
-1.43
-7.51
-11.62
-13.44
-13.07
-10.96
-7.75
-4.15
-0.73
2.12
4.20
5.47
5.95
5.66
4.58
2.61
-0.27
-4.01
-8.32
-12.79
-17.00
-20.65
-23.72
-26.49
-29.37
-32.88
-37.38
-43.07
-49.78
-56.93
-63.38
-67.59
-67.95
-63.22
-53.10
-38.37
-20.81
-2.64
14.14
28.20
39.02
46.65
51.33
53.24
52.42
48.99
43.39
36.54
29.66
24.05
20.61
19.69
20.91
23.49
26.47
29.08
30.88
31.83
32.10
31.82
31.01
29.43
26.75
22.68
17.23
10.73
3.74
-3.06
-9.21
-14.56
-19.26
-23.65
-28.13
-32.97
-38.43
-44.66
-51.73
-59.29
-66.42
-71.57
-72.89
-68.83
-58.80
-43.51
-24.83
-5.25
12.93
28.08
39.48
47.09
51.24
52.34
50.79
47.09
41.94
36.16
30.71
26.39
23.79
23.08
24.10
26.33
29.16
31.93
34.15
35.52
35.90
35.30
33.76
31.29
27.93
23.70
18.64
12.86
6.52
-0.14
-6.80
-13.15
-18.90
-23.88
-28.15
-31.95
-35.73
-40.05
-45.44
-52.20
-60.16
-68.45
-75.49
-79.24
-77.80
-70.06
-56.18
-37.66
-16.89
3.52
21.48
35.72
45.86
52.06
54.70
54.24
51.22
46.33
40.46
34.64
29.79
26.54
25.10
25.28
26.65
28.76
31.26
33.93
36.61
39.02
40.72
41.19
39.97
36.90
32.20
26.47
20.41
14.59
9.23
4.22
-0.75
-5.96
-11.43
-16.93
-22.06
-26.45
-30.00
-32.90
-35.65
-38.92
-43.44
-49.73
-57.88
-67.24
-76.38
-83.18
-85.39
-81.39
-70.73
-54.41
-34.55
-13.72
5.81
22.49
35.60
44.95
50.62
52.79
51.77
48.10
42.65
36.52
30.83
26.51
24.08
23.63
24.86
27.27
30.32
33.49
36.39
38.63
39.87
39.78
38.15
34.95
30.43
25.04
19.28
13.57
8.08
2.83
-2.34
-7.57
-12.93
-18.37
-23.80
-29.19
-34.55
-40.04
-45.80
-52.03
-58.91
-66.56
-74.82
-83.13
-90.28
-94.55
-94.13
-87.71
-75.06
-57.23
-36.26
-14.63
5.46
22.52
35.79
45.06
50.37
51.85
49.79
44.73
37.53
29.37
21.61
15.47
11.88
11.20
13.23
17.23
22.20
27.12
31.26
34.24
36.01
36.70
36.43
35.21
33.01
29.78
25.59
20.59
15.04
9.19
3.28
-2.49
-7.98
-13.08
-17.74
-22.07
-26.34
-31.02
-36.62
-43.41
-51.12
-58.67
-64.25
-65.80
-61.71
-51.48
-35.95
-17.15
2.35
20.22
34.90
45.78
52.98
56.97
58.18
56.91
53.38
47.92
41.16
33.99
27.51
22.73
20.30
20.35
22.50
25.99
29.95
33.55
36.19
37.47
37.21
35.43
32.35
28.29
23.63
18.68
13.55
8.23
2.63
-3.27
-9.35
-15.33
-20.90
-25.84
-30.19
-34.22
-38.41
-43.33
-49.43
-56.82
-65.05
-72.92
-78.66
-80.31
-76.33
-66.19
-50.62
-31.45
-11.07
8.26
24.89
37.97
47.30
53.02
55.41
54.79
51.57
46.39
40.08
33.67
28.10
24.12
22.05
21.84
23.12
25.39
28.22
31.21
34.01
36.21
37.33
36.91
34.68
30.72
25.44
19.49
13.44
7.66
2.16
-3.22
-8.72
-14.43
-20.26
-25.89
-31.00
-35.34
-38.92
-42.04
-45.28
-49.40
-55.04
-62.38
-70.77
-78.73
-84.10
-84.68
-78.98
-66.74
-49.11
-28.29
-6.92
12.72
29.05
41.32
49.44
53.69
54.50
52.38
47.93
41.96
35.40
29.28
24.51
21.71
21.05
22.28
24.84
28.03
31.18
33.83
35.64
36.42
36.06
34.49
31.79
28.12
23.77
19.08
14.26
9.38
4.35
-0.98
-6.68
-12.66
-18.61
-24.09
-28.77
-32.53
-35.61
-38.53
-42.06
-46.91
-53.54
-61.80
-70.76
-78.74
-83.54
-83.06
-76.00
-62.35
-43.56
-22.13
-0.89
17.77
32.34
42.39
48.22
50.50
49.93
47.15
42.72
37.18
31.14
25.26
20.24
16.71
15.04
15.33
17.27
20.25
23.55
26.52
28.72
29.92
30.00
28.96
26.80
23.57
19.38
14.40
8.80
2.73
-3.64
-10.09
-16.31
-21.97
-26.84
-30.94
-34.55
-38.15
-42.33
-47.53
-53.89
-61.03
-67.96
-73.11
-74.67
-71.15
-61.89
-47.45
-29.46
-10.13
8.35
24.39
37.12
46.27
51.84
53.90
52.57
48.16
41.38
33.32
25.30
18.53
13.85
11.57
11.40
12.73
14.79
16.93
18.75
20.10
20.96
21.29
20.90
19.53
16.82
12.58
6.86
0.03
-7.26
-14.29
-20.46
-25.54
-29.69
-33.41
-37.42
-42.34
-48.62
-56.18
-64.34
-71.74
-76.61
-77.12
-71.98
-60.86
-44.65
-25.21
-4.89
14.13
30.25
42.67
51.21
56.10
57.69
56.37
52.58
46.95
40.27
33.43
27.31
22.60
19.61
18.29
18.29
19.08
20.13
21.07
21.74
22.06
21.96
21.28
19.63
16.61
11.91
5.53
-2.11
-10.22
-17.94
-24.58
-29.89
-34.12
-37.93
-42.17
-47.61
-54.62
-62.91
-71.37
-78.14
-81.10
-78.42
-69.27
-54.12
-34.74
-13.60
6.76
24.36
38.06
47.56
53.07
55.13
54.27
51.05
46.04
39.87
33.31
27.24
22.54
19.87
19.50
21.14
24.10
27.41
30.25
32.12
32.91
32.81
31.98
30.45
27.99
24.29
19.15
12.65
5.26
-2.34
-9.53
-15.93
-21.47
-26.36
-30.93
-35.63
-40.90
-47.23
-54.98
-64.04
-73.56
-81.81
-86.49
-85.47
-77.53
-62.93
-43.38
-21.47
0.12
19.31
34.92
46.49
54.04
57.72
57.81
54.84
49.67
43.44
37.41
32.58
29.55
28.42
28.96
30.79
33.61
37.22
41.41
45.87
50.02
53.14
54.47
53.53
50.25
45.06
38.82
32.41
26.53
21.34
16.52
11.39
5.43
-1.46
-8.82
-15.83
-21.69
-26.04
-29.15
-31.77
-34.91
-39.42
-45.73
-53.68
-62.47
-70.66
-76.31
-77.37
-72.21
-60.17
-41.92
-19.31
5.12
28.81
49.81
67.00
79.98
88.79
93.68
94.93
93.07
88.94
83.87
79.59
77.84
79.84
85.64
93.83
101.78
106.42
105.28
97.37
83.41
65.28
45.10
24.42
3.82
-16.73
-37.27
-57.36
-75.99
-92.03
-104.74
-114.17
-121.02
-126.24
-130.56
-134.13
-136.62
-137.50
-136.51
-133.90
-130.42
-127.09
-124.88
-124.47
-126.03
-129.20
-132.93
-135.54
-134.99
-129.30
-117.24
-98.88
-75.62
-49.88
-24.34
-1.17
18.31
33.66
44.92
52.30
55.97
56.24
53.63
49.05
43.64
38.58
34.87
33.07
33.34
35.42
38.85
42.99
47.23
50.96
53.71
55.09
54.93
53.24
50.24
46.27
41.70
36.84
31.90
26.91
21.78
16.40
10.72
4.82
-1.04
-6.57
-11.54
-15.88
-19.79
-23.77
-28.51
-34.68
-42.60
-51.82
-60.97
-67.87
-70.08
-65.73
-54.27
-36.76
-15.60
6.29
26.38
43.06
55.81
64.77
70.27
72.51
71.55
67.53
61.00
52.98
44.80
37.82
33.02
30.82
30.99
32.84
35.50
38.17
40.22
41.28
41.23
40.17
38.33
36.00
33.39
30.56
27.39
23.64
19.23
14.17
8.71
3.07
-2.57
-8.27
-14.17
-20.52
-27.53
-35.42
-44.33
-54.18
-64.39
-73.65
-80.01
-81.31
-75.91
-63.44
-45.03
-23.07
-0.48
20.13
37.07
49.63
57.87
62.18
63.00
60.73
55.82
48.88
40.73
32.34
24.62
18.32
13.86
11.27
10.27
10.37
10.98
11.59
11.79
11.32
10.07
8.02
5.16
1.54
-2.81
-7.87
-13.57
-19.77
-26.23
-32.66
-38.72
-44.15
-48.81
-52.75
-56.22
-59.66
-63.65
-68.80
-75.45
-83.29
-91.10
-96.76
-97.80
-92.21
-79.27
-59.92
-36.59
-12.35
9.99
28.60
42.74
52.49
58.30
60.58
59.66
55.88
49.87
42.59
35.21
28.93
24.68
22.93
23.63
26.20
29.76
33.37
36.25
37.94
38.37
37.68
36.10
33.74
30.61
26.62
21.62
15.62
8.74
1.34
-6.14
-13.23
-19.59
-25.09
-29.88
-34.34
-39.01
-44.52
-51.37
-59.72
-69.18
-78.62
-86.18
-89.67
-87.16
-77.68
-61.65
-40.90
-18.12
3.94
23.18
38.41
49.37
56.26
59.40
59.07
55.66
49.77
42.41
34.83
28.33
23.85
21.80
21.98
23.72
26.17
28.58
30.44
31.61
32.12
32.05
31.35
29.75
26.88
22.39
16.22
8.68
0.46
-7.66
-14.99
-21.21
-26.39
-30.92
-35.37
-40.31
-46.19
-53.15
-60.92
-68.60
-74.72
-77.46
-75.18
-66.91
-52.82
-34.23
-13.31
7.58
26.40
41.78
53.13
60.37
63.68
63.37
59.80
53.50
45.29
36.32
27.93
21.38
17.49
16.41
17.58
19.99
22.59
24.66
25.97
26.62
26.74
26.24
24.73
21.70
16.88
10.42
2.94
-4.69
-11.75
-17.87
-23.15
-28.06
-33.18
-39.04
-46.03
-54.19
-63.17
-72.00
-79.10
-82.51
-80.45
-71.93
-57.23
-37.93
-16.48
4.59
23.27
38.40
49.57
56.74
59.97
59.42
55.45
48.87
40.94
33.11
26.70
22.53
20.78
21.07
22.72
25.00
27.39
29.59
31.45
32.81
33.38
32.71
30.36
26.00
19.63
11.67
2.85
-5.92
-13.86
-20.55
-26.01
-30.73
-35.50
-41.20
-48.52
-57.69
-68.17
-78.59
-86.82
-90.49
-87.65
-77.46
-60.54
-38.90
-15.35
7.32
26.98
42.49
53.58
60.43
63.38
62.72
58.81
52.34
44.40
36.44
29.92
25.91
24.79
26.12
28.93
31.99
34.36
35.60
35.77
35.22
34.26
32.90
30.84
27.57
22.68
16.10
8.19
-0.37
-8.77
-16.37
-22.84
-28.28
-33.09
-37.91
-43.38
-50.07
-58.21
-67.57
-77.21
-85.50
-90.35
-89.69
-82.16
-67.63
-47.38
-23.86
0.04
21.64
39.12
51.65
59.27
62.54
62.25
59.19
54.19
48.10
41.87
36.42
32.48
30.48
30.41
31.99
34.69
37.91
41.05
43.54
44.88
44.67
42.75
39.21
34.41
28.86
23.00
17.10
11.16
5.01
-1.55
-8.57
-15.90
-23.09
-29.57
-34.80
-38.54
-40.97
-42.76
-44.97
-48.70
-54.73
-63.02
-72.41
-80.75
-85.28
-83.57
-74.30
-57.83
-36.11
-12.13
11.00
30.82
45.93
55.95
61.21
62.38
60.22
55.59
49.39
42.59
36.17
30.97
27.55
26.12
26.51
28.26
30.81
33.65
36.39
38.74
40.39
40.94
39.95
37.11
32.42
26.31
19.49
12.70
6.37
0.57
-4.94
-10.45
-16.10
-21.76
-27.11
-31.88
-35.98
-39.58
-43.06
-47.00
-52.00
-58.54
-66.66
-75.70
-84.14
-89.76
-90.19
-83.71
-69.94
-50.15
-26.90
-3.27
18.05
35.31
47.86
55.84
59.69
59.90
57.01
51.69
44.91
37.87
31.70
27.27
24.93
24.55
25.71
27.88
30.57
33.37
35.92
37.77
38.50
37.70
35.16
30.96
25.46
19.21
12.76
6.44
0.36
-5.59
-11.47
-17.31
-22.89
-27.95
-32.29
-35.87
-38.87
-41.71
-44.92
-49.13
-54.86
-62.18
-70.43
-78.07
-82.87
-82.57
-75.69
-62.14
-43.38
-21.98
-0.72
18.15
33.38
44.59
51.93
55.66
55.91
52.87
46.97
39.04
30.35
22.33
16.21
12.73
11.95
13.31
15.90
18.75
21.19
22.91
23.94
24.46
24.51
23.85
22.05
18.64
13.39
6.51
-1.34
-9.27
-16.47
-22.48
-27.31
-31.39
-35.32
-39.76
-45.21
-51.84
-59.45
-67.20
-73.69
-77.12
-75.77
-68.57
-55.52
-37.77
-17.39
3.23
22.03
37.55
49.09
56.44
59.73
59.16
55.15
48.33
39.71
30.56
22.24
15.88
12.07
10.81
11.52
13.35
15.52
17.48
19.02
20.11
20.71
20.57
19.29
16.46
11.90
5.86
-1.06
-7.95
-14.02
-18.73
-22.00
-24.22
-26.08
-28.51
-32.42
-38.43
-46.50
-55.67
-64.06
-69.25
-68.99
-62.02
-48.54
-30.22
-9.66
10.50
28.22
42.39
52.67
59.14
61.93
61.17
57.09
50.31
41.88
33.19
25.60
20.12
17.08
16.22
16.82
18.09
19.42
20.58
21.57
22.49
23.22
23.35
22.26
19.34
14.31
7.40
-0.74
-9.15
-16.95
-23.61
-29.10
-33.85
-38.64
-44.31
-51.49
-60.32
-70.17
-79.62
-86.67
-89.20
-85.53
-75.05
-58.48
-37.72
-15.32
6.18
24.81
39.46
49.76
55.83
57.92
56.40
51.79
44.89
36.87
29.08
22.77
18.78
17.35
18.07
20.13
22.64
24.87
26.50
27.51
28.08
28.29
27.97
26.69
23.92
19.31
12.87
5.08
-3.26
-11.25
-18.23
-23.94
-28.62
-32.91
-37.66
-43.72
-51.57
-61.11
-71.40
-80.71
-86.78
-87.43
-81.27
-68.12
-49.32
-27.22
-4.62
16.00
32.93
45.46
53.56
57.58
58.00
55.31
50.13
43.29
35.90
29.17
24.16
21.53
21.31
22.98
25.66
28.46
30.73
32.18
32.84
32.81
32.08
30.43
27.45
22.72
16.06
7.61
-2.00
-11.90
-21.13
-28.96
-35.06
-39.60
-43.14
-46.42
-50.22
-55.18
-61.61
-69.29
-77.27
-83.89
-86.99
-84.54
-75.30
-59.38
-38.40
-14.96
7.99
28.05
43.75
54.65
60.95
63.12
61.60
56.84
49.38
40.07
30.10
20.84
13.57
9.14
7.75
8.96
11.87
15.51
19.04
22.01
24.25
25.75
26.43
26.08
24.46
21.36
16.82
11.22
5.17
-0.64
-5.64
-9.55
-12.50
-14.89
-17.34
-20.50
-24.99
-31.14
-38.90
-47.52
-55.59
-61.13
-62.06
-56.89
-45.20
-27.96
-7.27
14.19
33.85
49.86
61.26
67.85
69.99
68.27
63.49
56.69
49.10
42.02
36.49
33.05
31.56
31.38
31.67
31.77
31.41
30.70
29.91
29.20
28.37
26.87
23.91
18.83
11.33
1.64
-9.46
-20.98
-32.03
-42.13
-51.25
-59.74
-68.03
-76.56
-85.63
-95.42
-105.84
-116.30
-125.49
-131.49
-132.20
-126.07
-112.73
-93.26
-69.91
-45.42
-22.24
-2.07
14.19
26.24
34.09
37.86
37.89
34.87
29.90
24.41
19.82
17.16
16.83
18.52
21.52
25.04
28.58
32.03
35.52
39.03
42.24
44.37
44.56
42.21
37.35
30.62
23.06
15.71
9.16
3.48
-1.74
-7.14
-13.39
-20.97
-30.01
-40.16
-50.38
-58.97
-63.89
-63.26
-56.01
-42.34
-23.76
-2.68
18.33
37.12
52.38
63.56
70.61
73.72
73.08
69.04
62.24
53.73
44.89
37.13
31.47
28.30
27.22
27.42
28.01
28.43
28.58
28.72
28.98
29.15
28.58
26.44
22.11
15.55
7.40
-1.31
-9.51
-16.59
-22.43
-27.48
-32.44
-38.08
-44.96
-53.25
-62.53
-71.64
-78.77
-81.87
-79.20
-70.04
-54.97
-35.77
-14.85
5.38
23.11
37.29
47.50
53.74
56.16
55.03
50.85
44.36
36.67
29.05
22.72
18.51
16.70
16.92
18.37
20.20
21.78
22.89
23.63
24.09
24.13
23.36
21.16
17.13
11.26
4.07
-3.56
-10.65
-16.55
-21.10
-24.67
-27.99
-31.93
-37.23
-44.33
-53.21
-63.15
-72.74
-79.92
-82.45
-78.61
-67.80
-50.95
-30.27
-8.62
11.30
27.68
39.82
47.85
52.28
53.59
52.16
48.33
42.69
36.20
30.02
25.29
22.77
22.65
24.50
27.52
30.82
33.59
35.35
35.89
35.25
33.61
31.17
28.05
24.19
19.40
13.49
6.47
-1.29
-9.16
-16.39
-22.48
-27.37
-31.46
-35.39
-39.84
-45.33
-52.14
-60.24
-69.13
-77.62
-83.88
-85.75
-81.46
-70.30
-53.05
-31.88
-9.64
11.02
28.22
41.13
49.73
54.35
55.49
53.60
49.32
43.45
37.05
31.17
26.72
24.19
23.65
24.76
27.00
29.82
32.71
35.26
37.05
37.76
37.09
34.95
31.51
27.11
22.22
17.19
12.16
7.05
1.67
-4.11
-10.24
-16.46
-22.39
-27.70
-32.27
-36.16
-39.75
-43.58
-48.30
-54.40
-62.02
-70.54
-78.46
-83.63
-83.76
-77.22
-63.72
-44.56
-22.26
0.27
20.55
37.07
49.36
57.61
62.21
63.44
61.58
57.06
50.74
43.82
37.58
33.02
30.63
30.28
31.41
33.30
35.27
36.82
37.61
37.45
36.26
33.99
30.67
26.42
21.41
15.78
9.66
3.17
-3.60
-10.46
-17.22
-23.62
-29.43
-34.49
-38.81
-42.58
-46.16
-50.02
-54.70
-60.57
-67.65
-75.23
-81.86
-85.51
-84.16
-76.50
-62.53
-43.71
-22.55
-1.86
16.04
29.85
39.26
44.65
46.58
45.56
42.00
36.41
29.61
22.74
16.98
13.24
11.83
12.40
14.12
16.12
17.81
19.02
19.91
20.72
21.43
21.71
21.01
18.80
14.82
9.29
2.76
-3.98
-10.20
-15.46
-19.66
-23.09
-26.29
-29.89
-34.46
-40.30
-47.31
-54.78
-61.45
-65.70
-65.94
-61.07
-50.91
-36.27
-18.80
-0.54
16.56
31.08
42.24
49.83
53.97
54.89
52.86
48.26
41.74
34.26
26.99
21.06
17.19
15.51
15.58
16.66
18.04
19.34
20.48
21.50
22.30
22.46
21.38
18.55
13.88
7.77
1.01
-5.53
-11.27
-16.10
-20.35
-24.63
-29.60
-35.79
-43.36
-51.96
-60.64
-67.87
-71.80
-70.78
-63.91
-51.42
-34.73
-16.00
2.44
18.75
31.85
41.40
47.50
50.36
50.20
47.22
41.90
35.02
27.73
21.20
16.39
13.72
13.01
13.73
15.21
16.95
18.72
20.41
21.94
22.97
22.96
21.33
17.66
11.96
4.73
-3.17
-10.85
-17.63
-23.27
-28.04
-32.53
-37.51
-43.62
-51.16
-59.76
-68.31
-74.96
-77.60
-74.47
-64.80
-49.21
-29.60
-8.59
11.26
28.06
40.88
49.57
54.42
55.79
54.06
49.68
43.32
35.97
28.77
22.80
18.80
16.94
16.90
18.01
19.51
20.86
21.76
22.20
22.25
21.95
21.23
19.91
17.79
14.83
11.16
7.12
3.09
-0.58
-3.79
-6.69
-9.69
-13.35
-18.27
-24.85
-33.06
-42.21
-50.89
-57.19
-59.15
-55.42
-45.76
-31.22
-13.81
4.11
20.48
33.94
43.89
50.20
52.90
52.11
48.05
41.25
32.65
23.53
15.24
8.92
5.16
3.94
4.72
6.64
8.86
10.73
12.00
12.65
12.82
12.56
11.68
9.83
6.62
1.86
-4.23
-11.09
-17.95
-24.13
-29.26
-33.40
-36.94
-40.55
-44.86
-50.35
-57.08
-64.56
-71.64
-76.66
-77.83
-73.73
-63.86
-48.88
-30.51
-11.00
7.40
23.01
34.92
42.85
46.98
47.58
45.06
39.90
32.85
24.94
17.33
11.12
7.04
5.22
5.22
6.24
7.43
8.22
8.40
8.09
7.48
6.61
5.29
3.16
-0.06
-4.40
-9.56
-14.92
-19.80
-23.67
-26.38
-28.19
-29.71
-31.69
-34.76
-39.24
-44.90
-50.91
-55.92
-58.32
-56.70
-50.24
-39.03
-24.11
-7.15
9.97
25.64
38.72
48.57
54.91
57.64
56.87
53.00
46.77
39.22
31.51
24.67
19.40
15.98
14.33
14.15
15.03
16.63
18.65
20.79
22.70
23.90
23.80
21.86
17.91
12.22
5.54
-1.16
-7.06
-11.86
-15.83
-19.63
-24.06
-29.73
-36.82
-44.98
-53.24
-60.18
-64.02
-63.19
-56.74
-44.77
-28.53
-10.06
8.36
24.79
37.99
47.40
52.96
54.84
53.39
49.12
42.81
35.48
28.26
22.16
17.79
15.26
14.30
14.40
15.08
16.06
17.21
18.47
19.62
20.21
19.65
17.41
13.29
7.59
1.03
-5.50
-11.30
-16.14
-20.33
-24.57
-29.69
-36.25
-44.29
-53.20
-61.62
-67.75
-69.68
-65.98
-56.21
-41.19
-22.79
-3.49
14.38
29.18
40.14
47.26
50.84
51.31
49.02
44.42
38.22
31.41
25.09
20.21
17.27
16.20
16.50
17.49
18.60
19.55
20.29
20.85
21.12
20.72
19.16
16.01
11.17
4.96
-1.91
-8.62
-14.52
-19.41
-23.53
-27.55
-32.31
-38.45
-46.15
-54.87
-63.31
-69.65
-71.99
-68.93
-60.03
-46.05
-28.70
-10.19
7.35
22.35
33.96
41.94
46.39
47.57
45.82
41.69
35.95
29.61
23.73
19.22
16.55
15.73
16.33
17.69
19.12
20.19
20.70
20.67
20.22
19.36
17.93
15.62
12.13
7.36
1.56
-4.69
-10.67
-15.77
-19.80
-22.97
-25.90
-29.38
-34.11
-40.35
-47.72
-55.17
-61.07
-63.65
-61.44
-53.70
-40.76
-23.91
-5.13
13.39
29.74
42.64
51.52
56.39
57.68
55.96
51.83
45.97
39.17
32.32
26.38
22.18
20.18
20.37
22.26
25.07
28.02
30.43
31.89
32.22
31.35
29.35
26.39
22.73
18.66
14.40
9.98
5.30
0.21
-5.33
-11.07
-16.62
-21.49
-25.39
-28.27
-30.45
-32.55
-35.38
-39.73
-46.14
-54.57
-64.13
-73.05
-79.06
-79.99
-74.46
-62.44
-45.25
-25.19
-4.85
13.47
28.25
38.82
45.16
47.68
47.01
43.82
38.91
33.20
27.69
23.33
20.80
20.32
21.64
24.17
27.20
30.13
32.59
34.36
35.30
35.23
33.97
31.48
27.88
23.49
18.67
13.66
8.55
3.26
-2.29
-8.08
-13.89
-19.44
-24.41
-28.60
-31.96
-34.64
-36.94
-39.41
-42.68
-47.21
-52.95
-59.08
-63.99
-65.74
-62.74
-54.32
-41.07
-24.62
-7.11
9.49
23.80
35.10
43.13
47.87
49.34
47.71
43.38
37.16
30.14
23.50
18.32
15.18
14.21
14.98
16.80
18.91
20.69
21.84
22.31
22.19
21.54
20.28
18.18
14.95
10.46
4.86
-1.37
-7.61
-13.26
-17.99
-21.84
-25.17
-28.48
-32.28
-36.92
-42.52
-48.90
-55.50
-61.35
-65.12
-65.44
-61.25
-52.25
-39.09
-23.28
-6.78
8.57
21.47
31.27
37.83
41.31
41.90
39.85
35.61
29.94
23.83
18.34
14.25
11.90
11.14
11.52
12.51
13.72
15.04
16.42
17.82
19.01
19.55
18.97
16.89
13.25
8.30
2.55
-3.38
-9.02
-14.07
-18.53
-22.56
-26.51
-30.82
-35.89
-41.95
-48.73
-55.32
-60.26
-61.84
-58.64
-50.15
-36.95
-20.62
-3.26
13.10
26.99
37.63
44.83
48.72
49.55
47.64
43.42
37.58
31.03
24.85
19.97
16.99
15.95
16.42
17.71
19.16
20.36
21.20
21.72
21.92
21.61
20.43
17.97
14.03
8.75
2.65
-3.54
-9.17
-13.92
-17.92
-21.67
-25.86
-31.08
-37.62
-45.36
-53.64
-61.31
-66.83
-68.66
-65.63
-57.33
-44.37
-28.27
-11.05
5.29
19.22
29.87
36.96
40.63
41.21
39.16
35.03
29.57
23.63
18.12
13.79
11.08
10.05
10.44
11.81
13.71
15.83
17.94
19.88
21.35
21.96
21.19
18.66
14.27
8.35
1.60
-5.17
-11.31
-16.50
-20.90
-25.03
-29.60
-35.22
-42.18
-50.09
-57.86
-63.79
-65.99
-63.00
-54.36
-40.79
-24.00
-6.16
10.69
25.07
36.19
43.76
47.81
48.55
46.35
41.84
35.88
29.50
23.69
19.21
16.43
15.28
15.35
16.08
16.98
17.80
18.54
19.26
19.92
20.14
19.37
17.04
12.90
7.14
0.37
-6.57
-12.91
-18.22
-22.53
-26.25
-30.06
-34.66
-40.55
-47.69
-55.43
-62.42
-66.93
-67.28
-62.38
-52.11
-37.42
-20.11
-2.26
14.25
28.12
38.71
45.84
49.54
49.96
47.35
42.24
35.52
28.42
22.23
17.88
15.77
15.64
16.79
18.46
20.02
21.20
21.96
22.37
22.40
21.85
20.41
17.79
13.84
8.67
2.64
-3.69
-9.76
-15.15
-19.70
-23.57
-27.21
-31.22
-36.15
-42.29
-49.50
-57.05
-63.65
-67.71
-67.68
-62.56
-52.20
-37.51
-20.23
-2.46
13.82
27.17
36.85
42.66
44.79
43.61
39.71
33.90
27.26
20.98
16.08
13.13
12.16
12.74
14.22
16.03
17.81
19.40
20.69
21.48
21.43
20.17
17.39
13.03
7.39
1.05
-5.28
-10.97
-15.66
-19.31
-22.25
-25.06
-28.42
-32.88
-38.60
-45.13
-51.39
-55.80
-56.70
-52.93
-44.19
-31.30
-15.92
-0.06
14.44
26.30
34.93
40.24
42.38
41.63
38.30
32.83
25.99
18.79
12.39
7.79
5.50
5.50
7.16
9.67
12.26
14.45
16.04
16.95
17.06
16.15
13.95
10.32
5.42
-0.30
-6.22
-11.71
-16.34
-20.00
-22.95
-25.68
-28.80
-32.86
-38.12
-44.39
-50.91
-56.43
-59.39
-58.35
-52.37
-41.44
-26.53
-9.42
7.78
23.15
35.38
43.94
48.91
50.69
49.75
46.56
41.67
35.83
30.00
25.18
22.10
21.02
21.64
23.27
25.14
26.65
27.58
27.96
27.91
27.44
26.32
24.16
20.59
15.50
9.14
2.12
-4.77
-10.86
-15.81
-19.69
-22.95
-26.22
-30.15
-35.19
-41.37
-48.21
-54.62
-59.07
-59.93
-55.97
-46.82
-33.18
-16.71
0.44
16.20
29.09
38.37
44.03
46.45
46.15
43.69
39.57
34.43
29.03
24.23
20.83
19.33
19.72
21.51
23.90
26.05
27.39
27.76
27.35
26.52
25.53
24.40
22.89
20.68
17.47
13.20
8.05
2.41
-3.30
-8.69
-13.58
-17.94
-21.93
-25.82
-29.96
-34.72
-40.38
-46.94
-54.00
-60.58
-65.25
-66.46
-63.00
-54.43
-41.32
-25.17
-7.98
8.23
21.90
32.18
38.92
42.40
43.20
41.90
39.05
35.21
31.01
27.13
24.23
22.73
22.68
23.74
25.35
26.99
28.38
29.49
30.44
31.26
31.75
31.57
30.37
28.00
24.59
20.51
16.18
11.87
7.64
3.35
-1.23
-6.19
-11.47
-16.78
-21.79
-26.18
-29.88
-33.02
-36.04
-39.54
-44.07
-49.92
-56.80
-63.72
-69.08
-71.08
-68.24
-59.95
-46.81
-30.43
-13.01
3.35
17.11
27.55
34.61
38.58
39.87
38.86
36.01
31.89
27.30
23.09
20.03
18.56
18.70
20.11
22.25
24.56
26.59
28.00
28.61
28.31
27.06
24.89
21.92
18.33
14.40
10.38
6.48
2.75
-0.91
-4.69
-8.73
-13.11
-17.66
-22.09
-26.07
-29.44
-32.26
-34.88
-37.83
-41.64
-46.60
-52.50
-58.57
-63.47
-65.62
-63.66
-56.88
-45.56
-30.92
-14.82
0.80
14.30
24.68
31.57
35.06
35.52
33.45
29.43
24.18
18.48
13.19
9.09
6.80
6.58
8.19
11.02
14.22
16.99
18.80
19.52
19.34
18.54
17.31
15.60
13.21
9.98
5.92
1.29
-3.45
-7.85
-11.57
-14.54
-16.93
-19.05
-21.30
-24.03
-27.52
-31.91
-37.01
-42.25
-46.55
-48.56
-46.97
-41.01
-30.76
-17.29
-2.32
12.23
24.80
34.53
41.23
45.17
46.73
46.19
43.66
39.32
33.53
26.99
20.63
15.40
11.97
10.51
10.68
11.87
13.41
14.86
15.99
16.67
16.82
16.21
14.59
11.82
7.93
3.22
-1.88
-6.94
-11.61
-15.74
-19.29
-22.40
-25.27
-28.17
-31.47
-35.57
-40.76
-46.93
-53.40
-58.84
-61.55
-59.98
-53.31
-41.79
-26.78
-10.27
5.69
19.49
30.26
37.74
42.09
43.64
42.79
40.00
35.83
30.92
25.90
21.41
17.94
15.82
15.17
15.87
17.61
19.91
22.25
24.15
25.21
25.17
23.93
21.59
18.40
14.69
10.76
6.82
2.89
-1.04
-5.02
-9.02
-12.91
-16.53
-19.79
-22.71
-25.47
-28.36
-31.75
-36.00
-41.32
-47.47
-53.69
-58.65
-60.74
-58.61
-51.63
-40.14
-25.48
-9.52
5.80
18.97
29.09
35.91
39.58
40.49
39.14
36.04
31.73
26.78
21.74
17.21
13.75
11.79
11.49
12.72
15.04
17.85
20.58
22.76
24.12
24.50
23.83
22.11
19.44
15.99
12.05
7.86
3.55
-0.84
-5.34
-9.88
-14.26
-18.27
-21.82
-24.98
-28.10
-31.61
-35.88
-41.05
-46.95
-52.98
-58.19
-61.29
-61.00
-56.31
-46.94
-33.58
-17.78
-1.59
13.04
24.73
32.93
37.78
39.80
39.59
37.63
34.30
30.00
25.28
20.84
17.41
15.57
15.52
17.04
19.55
22.30
24.64
26.12
26.62
26.21
25.02
23.17
20.70
17.63
14.05
10.08
5.85
1.45
-3.07
-7.69
-12.32
-16.81
-20.95
-24.65
-27.94
-31.02
-34.16
-37.71
-41.97
-47.04
-52.65
-58.00
-61.84
-62.64
-59.19
-51.01
-38.70
-23.76
-8.16
6.26
18.20
27.09
32.85
35.63
35.65
33.15
28.59
22.72
16.51
11.00
6.95
4.67
4.02
4.58
5.89
7.58
9.46
11.39
13.20
14.62
15.31
14.98
13.40
10.52
6.44
1.48
-3.89
-9.07
-13.61
-17.34
-20.43
-23.39
-26.82
-31.21
-36.68
-42.91
-49.10
-54.11
-56.68
-55.73
-50.70
-41.69
-29.53
-15.57
-1.36
11.71
22.56
30.61
35.66
37.81
37.41
34.92
30.92
26.08
21.04
16.37
12.55
9.84
8.34
8.03
8.76
10.36
12.57
15.04
17.33
18.86
19.07
17.57
14.24
9.35
3.53
-2.45
-7.92
-12.55
-16.54
-20.57
-25.59
-32.34
-41.05
-51.10
-61.11
-69.15
-73.29
-72.15
-65.26
-53.22
-37.47
-19.89
-2.37
13.56
26.86
37.01
43.82
47.37
47.97
46.11
42.47
37.89
33.20
29.09
26.00
24.07
23.16
23.02
23.34
23.91
24.61
25.35
25.98
26.19
25.54
23.54
19.88
14.60
8.11
1.14
-5.51
-11.29
-16.07
-20.18
-24.34
-29.36
-35.81
-43.68
-52.15
-59.68
-64.31
-64.29
-58.61
-47.48
-32.26
-15.07
1.90
16.88
28.88
37.61
43.21
45.95
46.09
43.85
39.64
34.12
28.23
23.01
19.33
17.62
17.76
19.20
21.19
23.09
24.53
25.47
25.97
26.03
25.43
23.77
20.69
16.06
10.14
3.51
-3.09
-9.08
-14.22
-18.66
-22.85
-27.28
-32.42
-38.55
-45.68
-53.48
-61.08
-67.14
-70.03
-68.30
-61.20
-49.05
-33.23
-15.77
1.22
16.11
28.01
36.65
42.18
44.87
45.00
42.89
39.02
34.09
28.98
24.66
21.91
21.13
22.22
24.67
27.71
30.61
32.83
34.08
34.29
33.45
31.65
28.96
25.61
21.82
17.84
13.79
9.62
5.18
0.31
-4.93
-10.34
-15.57
-20.32
-24.44
-27.98
-31.20
-34.54
-38.52
-43.65
-50.18
-57.78
-65.36
-71.17
-73.15
-69.69
-60.19
-45.37
-27.09
-7.76
10.34
25.56
37.07
44.76
48.89
49.92
48.31
44.59
39.45
33.79
28.63
24.95
23.38
24.05
26.54
30.08
33.85
37.25
39.99
41.98
43.16
43.35
42.30
39.82
35.95
31.02
25.60
20.22
15.26
10.79
6.64
2.54
-1.75
-6.28
-10.94
-15.47
-19.61
-23.24
-26.44
-29.52
-32.92
-37.19
-42.71
-49.59
-57.39
-65.06
-71.01
-73.47
-71.01
-63.03
-49.99
-33.35
-15.18
2.42
17.79
29.92
38.45
43.47
45.27
44.25
40.88
35.75
29.67
23.59
18.51
15.19
13.99
14.79
17.00
19.85
22.60
24.75
26.09
26.54
26.11
24.75
22.46
19.36
15.72
11.88
8.12
4.56
1.08
-2.56
-6.55
-10.87
-15.31
-19.51
-23.23
-26.36
-29.07
-31.70
-34.77
-38.79
-44.06
-50.45
-57.14
-62.68
-65.26
-63.28
-55.88
-43.36
-27.11
-9.22
8.10
23.17
35.01
43.34
48.34
50.34
49.69
46.80
42.14
36.44
30.57
25.44
21.78
20.01
20.09
21.65
24.08
26.78
29.21
31.02
31.91
31.65
30.10
27.26
23.34
18.73
13.94
9.38
5.20
1.24
-2.83
-7.35
-12.47
-17.99
-23.50
-28.51
-32.72
-36.15
-39.17
-42.38
-46.41
-51.73
-58.30
-65.48
-72.01
-76.17
-76.27
-71.14
-60.57
-45.47
-27.62
-9.17
7.91
22.27
33.22
40.65
44.74
45.79
44.24
40.66
35.87
30.79
26.34
23.22
21.78
22.03
23.67
26.29
29.40
32.59
35.46
37.72
39.08
39.29
38.13
35.51
31.52
26.51
20.99
15.54
10.59
6.28
2.40
-1.41
-5.53
-10.03
-14.76
-19.34
-23.45
-26.97
-30.07
-33.23
-37.04
-41.99
-48.22
-55.28
-62.07
-66.99
-68.32
-64.73
-55.78
-42.08
-25.24
-7.33
9.57
23.93
34.87
42.14
45.96
46.73
44.99
41.41
36.71
31.71
27.21
23.88
22.13
22.06
23.43
25.80
28.67
31.52
33.98
35.72
36.51
36.13
34.48
31.62
27.79
23.39
18.90
14.64
10.77
7.16
3.55
-0.32
-4.62
-9.28
-14.02
-18.50
-22.42
-25.63
-28.28
-30.79
-33.83
-38.06
-43.87
-51.10
-58.78
-65.23
-68.46
-66.78
-59.36
-46.65
-30.24
-12.39
4.60
18.94
29.69
36.68
40.23
40.91
39.30
35.97
31.54
26.62
21.95
18.16
15.76
14.95
15.64
17.53
20.19
23.14
25.96
28.22
29.54
29.61
28.27
25.59
21.89
17.61
13.16
8.81
4.57
0.32
-4.10
-8.75
-13.54
-18.22
-22.51
-26.20
-29.25
-31.80
-34.18
-36.88
-40.40
-45.08
-50.78
-56.78
-61.67
-63.76
-61.58
-54.39
-42.56
-27.52
-11.26
4.21
17.39
27.52
34.49
38.49
39.84
38.78
35.61
30.78
25.04
19.34
14.67
11.78
11.00
12.16
14.68
17.78
20.72
22.94
24.15
24.31
23.49
21.80
19.26
15.84
11.50
6.30
0.44
-5.71
-11.75
-17.32
-22.21
-26.41
-30.06
-33.42
-36.78
-40.52
-44.94
-50.17
-55.94
-61.46
-65.44
-66.40
-63.07
-54.98
-42.61
-27.31
-10.95
4.66
18.16
28.75
36.18
40.46
41.78
40.42
36.84
31.75
26.02
20.58
16.23
13.45
12.33
12.66
14.02
15.93
18.01
19.98
21.67
22.91
23.44
22.92
20.97
17.38
12.29
6.18
-0.18
-6.04
-10.95
-14.97
-18.56
-22.50
-27.46
-33.81
-41.38
-49.42
-56.64
-61.49
-62.41
-58.38
-49.21
-35.77
-19.72
-3.10
12.23
25.02
34.74
41.40
45.22
46.38
45.02
41.37
36.02
29.89
24.14
19.80
17.44
17.04
18.02
19.60
21.12
22.24
22.96
23.40
23.61
23.43
22.53
20.54
17.25
12.71
7.24
1.29
-4.62
-10.07
-14.82
-18.85
-22.45
-26.14
-30.57
-36.28
-43.37
-51.33
-58.92
-64.44
-66.15
-62.77
-53.94
-40.37
-23.66
-5.92
10.78
24.84
35.40
42.28
45.81
46.52
44.97
41.66
37.09
31.87
26.74
22.45
19.60
18.48
18.99
20.65
22.83
24.93
26.48
27.23
27.13
26.24
24.66
22.51
19.78
16.46
12.49
7.84
2.59
-3.06
-8.80
-14.24
-19.10
-23.24
-26.75
-29.96
-33.36
-37.46
-42.68
-49.11
-56.38
-63.56
-69.20
-71.64
-69.37
-61.62
-48.63
-31.78
-13.23
4.67
19.95
31.50
39.12
43.25
44.57
43.78
41.38
37.86
33.70
29.55
26.06
23.75
22.86
23.28
24.69
26.64
28.76
30.82
32.65
34.03
34.67
34.24
32.45
29.28
25.04
20.30
15.68
11.63
8.24
5.26
2.20
-1.40
-5.76
-10.76
-15.92
-20.64
-24.42
-27.09
-28.92
-30.58
-32.92
-36.68
-42.25
-49.38
-57.11
-63.84
-67.71
-67.03
-60.82
-49.16
-33.22
-14.99
3.25
19.55
32.60
41.90
47.54
49.91
49.53
46.90
42.59
37.30
31.84
27.07
23.69
22.09
22.21
23.65
25.80
28.10
30.15
31.75
32.79
33.19
32.81
31.48
29.06
25.57
21.19
16.24
11.17
6.41
2.30
-1.04
-3.77
-6.27
-9.00
-12.38
-16.48
-21.03
-25.49
-29.26
-31.99
-33.77
-35.10
-36.72
-39.37
-43.52
-49.26
-56.13
-63.15
-68.89
-71.68
-70.07
-63.26
-51.45
-35.85
-18.39
-1.21
13.87
25.70
33.87
38.50
40.02
38.97
35.89
31.35
26.03
20.65
15.98
12.66
11.05
11.15
12.68
15.18
18.16
21.21
23.97
26.12
27.33
27.29
25.81
22.91
18.82
13.99
9.00
4.36
0.42
-2.77
-5.49
-8.24
-11.41
-15.19
-19.37
-23.48
-27.04
-29.76
-31.75
-33.40
-35.32
-38.08
-42.05
-47.18
-52.83
-57.83
-60.59
-59.59
-53.89
-43.50
-29.45
-13.50
2.41
16.68
28.30
36.87
42.34
44.85
44.57
41.88
37.39
31.96
26.60
22.20
19.27
17.94
18.00
19.13
21.01
23.41
26.08
28.65
30.67
31.63
31.16
29.21
26.08
22.27
18.28
14.38
10.56
6.61
2.29
-2.47
-7.56
-12.71
-17.67
-22.22
-26.28
-29.89
-33.24
-36.69
-40.72
-45.72
-51.74
-58.13
-63.55
-66.22
-64.47
-57.45
-45.42
-29.78
-12.57
4.16
18.81
30.49
38.88
44.08
46.32
45.94
43.33
39.05
33.76
28.26
23.24
19.27
16.67
15.51
15.68
16.96
19.07
21.62
24.16
26.22
27.30
27.13
25.61
22.99
19.66
16.01
12.29
8.53
4.60
0.39
-4.15
-8.92
-13.71
-18.32
-22.55
-26.32
-29.66
-32.74
-35.91
-39.67
-44.51
-50.64
-57.66
-64.38
-68.99
-69.60
-64.87
-54.62
-39.91
-22.76
-5.46
10.07
22.67
31.96
38.07
41.32
42.04
40.54
37.25
32.74
27.74
22.98
19.06
16.41
15.19
15.34
16.64
18.72
21.12
23.34
24.95
25.68
25.40
24.17
22.15
19.51
16.38
12.78
8.70
4.11
-0.94
-6.31
-11.76
-16.96
-21.65
-25.63
-28.90
-31.67
-34.36
-37.47
-41.50
-46.73
-53.01
-59.59
-65.15
-68.00
-66.54
-59.83
-47.98
-32.27
-14.75
2.31
17.08
28.57
36.56
41.40
43.55
43.46
41.45
37.83
33.10
27.95
23.15
19.40
17.13
16.44
17.08
18.63
20.56
22.43
23.88
24.70
24.76
24.04
22.48
20.03
16.70
12.53
7.63
2.24
-3.38
-8.99
-14.33
-19.28
-23.74
-27.71
-31.31
-34.75
-38.38
-42.65
-47.87
-54.01
-60.48
-66.09
-69.25
-68.46
-62.79
-52.22
-37.80
-21.25
-4.55
10.55
22.89
31.94
37.67
40.34
40.38
38.27
34.56
29.85
24.77
20.00
16.18
13.79
13.10
14.00
16.12
18.82
21.47
23.52
24.66
24.85
24.15
22.69
20.53
17.69
14.15
9.93
5.20
0.24
-4.59
-9.00
-12.88
-16.33
-19.61
-23.06
-26.96
-31.55
-36.96
-43.18
-49.84
-56.17
-60.93
-62.66
-60.17
-52.98
-41.56
-27.29
-11.96
2.69
15.41
25.52
32.77
37.16
38.72
37.61
34.15
28.93
22.88
17.11
12.67
10.32
10.33
12.45
16.04
20.31
24.57
28.39
31.67
34.44
36.64
37.99
37.96
36.00
31.78
25.48
17.74
9.46
1.55
-5.49
-11.64
-17.28
-23.03
-29.52
-37.12
-45.84
-55.07
-63.65
-69.99
-72.44
-69.85
-61.93
-49.44
-34.02
-17.65
-2.16
11.11
21.44
28.63
32.78
34.14
33.05
29.97
25.45
20.21
15.08
10.87
8.25
7.56
8.71
11.31
14.81
18.63
22.32
25.57
28.16
29.87
30.50
29.87
27.85
24.41
19.65
13.84
7.41
0.94
-5.01
-10.06
-14.22
-17.84
-21.55
-25.98
-31.58
-38.42
-46.12
-53.80
-60.22
-63.84
-63.21
-57.42
-46.41
-31.17
-13.49
4.51
20.93
34.47
44.50
50.90
53.85
53.65
50.79
45.94
40.02
34.06
29.02
25.53
23.77
23.49
24.23
25.52
27.07
28.82
30.74
32.66
34.17
34.67
33.68
31.02
26.94
22.06
17.03
12.33
8.08
4.10
0.02
-4.48
-9.52
-14.97
-20.45
-25.48
-29.67
-32.90
-35.38
-37.69
-40.56
-44.68
-50.43
-57.66
-65.49
-72.38
-76.38
-75.61
-68.93
-56.39
-39.28
-19.83
-0.52
16.62
30.39
40.45
46.97
50.35
50.95
49.14
45.45
40.62
35.64
31.46
28.77
27.80
28.30
29.74
31.52
33.23
34.71
35.99
37.11
37.97
38.25
37.54
35.47
31.95
27.25
21.89
16.51
11.57
7.21
3.22
-0.77
-5.13
-10.01
-15.24
-20.45
-25.19
-29.20
-32.42
-35.13
-37.81
-41.04
-45.40
-51.26
-58.54
-66.52
-73.77
-78.33
-78.25
-72.18
-59.95
-42.70
-22.61
-2.24
16.17
31.15
42.18
49.34
53.02
53.65
51.61
47.39
41.67
35.40
29.63
25.32
23.03
22.83
24.29
26.73
29.43
31.92
34.01
35.65
36.81
37.29
36.81
35.05
31.93
27.70
22.82
17.90
13.43
9.61
6.36
3.34
0.15
-3.48
-7.61
-12.09
-16.59
-20.79
-24.45
-27.55
-30.26
-32.98
-36.20
-40.47
-46.20
-53.42
-61.55
-69.31
-74.86
-76.25
-72.04
-61.80
-46.41
-27.76
-8.25
9.85
24.98
36.46
44.26
48.72
50.20
48.99
45.40
39.99
33.63
27.46
22.60
19.78
19.12
20.23
22.36
24.81
27.11
29.02
30.40
31.03
30.62
28.90
25.82
21.68
16.96
12.19
7.67
3.35
-0.99
-5.63
-10.58
-15.64
-20.45
-24.66
-28.17
-31.08
-33.68
-36.39
-39.65
-43.87
-49.25
-55.64
-62.30
-67.88
-70.71
-69.25
-62.68
-51.26
-36.26
-19.60
-3.24
11.25
22.93
31.39
36.58
38.60
37.67
34.18
28.80
22.40
16.03
10.60
6.75
4.67
4.16
4.77
6.05
7.69
9.52
11.52
13.55
15.25
16.06
15.35
12.71
8.17
2.28
-4.10
-10.08
-15.09
-19.08
-22.48
-26.01
-30.31
-35.78
-42.38
-49.66
-56.75
-62.43
-65.35
-64.24
-58.34
-47.69
-33.23
-16.61
0.18
15.37
27.73
36.70
42.31
44.95
45.12
43.25
39.70
34.88
29.26
23.52
18.41
14.63
12.59
12.34
13.54
15.59
17.86
19.74
20.78
20.64
19.11
16.17
12.00
7.00
1.66
-3.58
-8.54
-13.32
-18.26
-23.85
-30.44
-38.03
-45.99
-53.10
-57.69
-58.19
-53.55
-43.74
-29.80
-13.60
2.76
17.47
29.33
37.87
43.10
45.23
44.60
41.57
36.71
30.76
24.59
19.03
14.69
11.94
10.80
11.14
12.60
14.76
17.04
18.81
19.50
18.69
16.28
12.43
7.57
2.14
-3.43
-8.91
-14.25
-19.56
-25.14
-31.37
-38.53
-46.50
-54.54
-61.21
-64.69
-63.28
-56.10
-43.53
-27.17
-9.36
7.56
21.83
32.58
39.72
43.56
44.51
42.95
39.28
34.07
28.18
22.59
18.21
15.56
14.69
15.24
16.63
18.34
20.04
21.58
22.76
23.30
22.76
20.70
16.95
11.73
5.62
-0.68
-6.57
-11.86
-16.67
-21.48
-26.83
-33.18
-40.57
-48.55
-55.96
-61.15
-62.31
-58.09
-48.14
-33.33
-15.65
2.44
18.73
31.72
40.90
46.42
48.81
48.64
46.43
42.71
38.12
33.40
29.27
26.32
24.84
24.82
26.03
28.07
30.57
33.12
35.40
37.05
37.75
37.22
35.33
32.20
28.14
23.65
19.16
14.88
10.71
6.36
1.50
-3.99
-9.87
-15.71
-21.06
-25.69
-29.68
-33.40
-37.37
-42.14
-48.07
-55.14
-62.75
-69.63
-74.02
-74.05
-68.41
-56.89
-40.57
-21.57
-2.44
14.59
28.11
37.57
43.11
45.16
44.26
41.00
36.14
30.66
25.61
21.91
20.04
20.01
21.40
23.60
26.03
28.30
30.15
31.43
31.96
31.56
30.08
27.47
23.85
19.52
14.90
10.39
6.25
2.46
-1.22
-5.13
-9.51
-14.31
-19.17
-23.67
-27.45
-30.52
-33.16
-35.89
-39.30
-43.78
-49.41
-55.76
-61.80
-66.09
-67.03
-63.36
-54.60
-41.33
-25.08
-7.91
8.12
21.47
31.29
37.47
40.33
40.42
38.33
34.69
30.21
25.66
21.78
19.22
18.30
18.99
20.92
23.50
26.16
28.43
30.05
30.89
30.93
30.14
28.50
25.99
22.66
18.65
14.17
9.53
4.98
0.71
-3.26
-6.96
-10.44
-13.67
-16.56
-19.01
-21.04
-22.90
-25.06
-28.17
-32.74
-38.85
-45.89
-52.52
-56.94
-57.36
-52.67
-42.89
-29.25
-13.80
1.18
13.92
23.47
29.71
33.05
34.02
33.02
30.32
26.20
21.15
15.82
10.97
7.30
5.40
5.75
8.69
14.35
22.44
32.19
42.38
51.62
58.75
63.09
64.59
63.60
60.70
56.53
51.69
46.76
42.24
38.51
35.58
33.11
30.46
26.92
22.01
15.65
8.18
0.23
-7.48
-14.44
-20.53
-26.01
-31.58
-38.03
-46.07
-55.86
-66.83
-77.62
-86.28
-90.84
-89.83
-82.82
-70.59
-54.94
-38.11
-22.21
-8.76
1.46
8.39
12.37
13.86
13.34
11.30
8.26
4.93
2.09
0.51
0.66
2.59
5.90
9.92
13.99
17.69
20.88
23.63
25.97
27.78
28.79
28.72
27.42
25.03
21.88
18.38
14.83
11.40
8.16
5.13
2.33
-0.19
-2.48
-4.68
-7.01
-9.70
-12.87
-16.42
-20.15
-23.74
-26.95
-29.72
-32.20
-34.78
-37.96
-42.21
-47.70
-54.16
-60.69
-65.88
-68.10
-65.97
-58.87
-47.24
-32.47
-16.59
-1.62
10.93
20.37
26.66
30.20
31.46
30.83
28.69
25.53
22.00
18.84
16.63
15.73
16.16
17.66
19.88
22.45
25.07
27.48
29.52
31.05
31.97
32.17
31.56
30.04
27.59
24.30
20.41
16.25
12.16
8.39
5.02
1.97
-0.94
-3.91
-7.10
-10.58
-14.28
-18.05
-21.68
-24.99
-27.90
-30.50
-33.02
-35.81
-39.27
-43.67
-48.95
-54.54
-59.31
-61.82
-60.76
-55.40
-45.92
-33.33
-19.17
-4.93
8.22
19.62
28.97
36.14
41.03
43.54
43.71
41.80
38.37
34.13
29.81
26.05
23.21
21.38
20.45
20.19
20.38
20.87
21.56
22.32
22.89
22.91
21.98
19.84
16.51
12.34
7.88
3.67
0.08
-2.92
-5.63
-8.52
-11.92
-15.86
-20.10
-24.20
-27.76
-30.56
-32.67
-34.37
-36.12
-38.42
-41.64
-45.90
-50.90
-55.83
-59.47
-60.51
-57.93
-51.37
-41.29
-28.82
-15.51
-2.88
7.89
16.12
21.58
24.41
24.96
23.65
20.93
17.25
13.09
8.99
5.55
3.26
2.43
3.05
4.78
7.10
9.46
11.47
12.96
13.93
14.47
14.64
14.41
13.65
12.21
9.95
6.89
3.17
-0.95
-5.12
-9.05
-12.57
-15.71
-18.68
-21.85
-25.56
-30.04
-35.25
-40.73
-45.57
-48.61
-48.68
-45.02
-37.52
-26.85
-14.26
-1.24
10.84
21.03
28.85
34.16
36.99
37.49
35.87
32.48
27.89
22.80
17.97
14.04
11.44
10.29
10.41
11.47
13.01
14.59
15.83
16.51
16.56
16.01
14.96
13.41
11.26
8.31
4.48
-0.18
-5.32
-10.48
-15.21
-19.32
-22.88
-26.23
-29.79
-33.93
-38.77
-44.15
-49.56
-54.13
-56.76
-56.34
-52.04
-43.63
-31.66
-17.40
-2.51
11.33
22.86
31.41
36.88
39.56
39.88
38.29
35.15
30.89
26.03
21.22
17.21
14.59
13.64
14.22
15.83
17.80
19.50
20.60
21.08
21.10
20.81
20.19
18.97
16.78
13.32
8.62
3.03
-2.85
-8.40
-13.22
-17.26
-20.74
-24.05
-27.58
-31.69
-36.57
-42.27
-48.50
-54.53
-59.20
-61.10
-58.98
-52.24
-41.22
-27.13
-11.81
2.92
15.61
25.52
32.44
36.61
38.36
38.01
35.93
32.52
28.33
23.98
20.13
17.29
15.77
15.56
16.46
18.07
19.95
21.70
22.99
23.66
23.68
23.10
22.00
20.35
18.09
15.09
11.29
6.75
1.70
-3.53
-8.62
-13.29
-17.43
-21.08
-24.38
-27.57
-30.94
-34.81
-39.44
-44.91
-50.84
-56.36
-60.11
-60.62
-56.75
-48.16
-35.54
-20.38
-4.57
10.12
22.45
31.81
38.04
41.31
41.85
40.05
36.44
31.73
26.77
22.36
19.09
17.24
16.78
17.48
19.01
21.10
23.49
25.95
28.18
29.81
30.44
29.79
27.77
24.61
20.74
16.69
12.86
9.42
6.22
2.93
-0.79
-5.10
-9.88
-14.79
-19.36
-23.21
-26.22
-28.65
-31.01
-34.01
-38.23
-43.91
-50.67
-57.50
-62.87
-65.17
-63.08
-56.07
-44.54
-29.76
-13.49
2.40
16.36
27.36
34.97
39.27
40.62
39.57
36.62
32.29
27.11
21.70
16.76
12.98
10.89
10.66
12.07
14.56
17.45
20.11
22.13
23.33
23.70
23.23
21.88
19.62
16.43
12.40
7.72
2.68
-2.43
-7.38
-11.99
-16.21
-20.06
-23.57
-26.87
-30.10
-33.53
-37.39
-41.90
-46.99
-52.12
-56.23
-57.91
-55.85
-49.32
-38.55
-24.67
-9.40
5.47
18.54
29.01
36.59
41.22
43.01
42.12
38.87
33.85
27.91
22.11
17.41
14.55
13.76
14.80
17.06
19.78
22.31
24.29
25.65
26.43
26.66
26.19
24.73
22.03
18.03
12.94
7.21
1.38
-4.06
-8.85
-12.95
-16.59
-20.16
-24.17
-29.02
-34.93
-41.65
-48.41
-53.92
-56.64
-55.24
-48.99
-38.10
-23.65
-7.43
8.65
22.91
34.20
42.04
46.47
47.89
46.86
44.01
39.94
35.28
30.61
26.47
23.30
21.37
20.74
21.26
22.62
24.44
26.32
27.91
28.91
29.12
28.38
26.69
24.13
20.89
17.20
13.22
8.98
4.38
-0.65
-6.09
-11.73
-17.16
-21.96
-25.90
-29.02
-31.72
-34.59
-38.25
-43.14
-49.30
-56.20
-62.71
-67.25
-68.16
-64.21
-55.03
-41.29
-24.62
-7.11
9.21
22.87
33.08
39.71
43.08
43.68
42.09
38.87
34.63
30.00
25.67
22.24
20.12
19.49
20.22
22.03
24.52
27.30
30.02
32.34
33.91
34.40
33.56
31.31
27.81
23.39
18.48
13.44
8.48
3.63
-1.16
-5.95
-10.76
-15.50
-20.03
-24.16
-27.79
-30.95
-33.91
-37.13
-41.18
-46.45
-52.84
-59.59
-65.29
-68.19
-66.77
-60.22
-48.75
-33.63
-16.74
-0.09
14.70
26.66
35.45
41.15
44.04
44.41
42.57
38.94
34.22
29.34
25.31
22.91
22.50
23.82
26.25
29.04
31.58
33.59
35.04
35.98
36.40
36.13
34.96
32.79
29.64
25.72
21.36
16.85
12.48
8.44
4.82
1.55
-1.55
-4.75
-8.24
-12.10
-16.19
-20.22
-23.89
-27.01
-29.62
-31.94
-34.41
-37.47
-41.53
-46.87
-53.42
-60.59
-67.18
-71.57
-72.04
-67.32
-57.07
-42.12
-24.23
-5.65
11.51
25.68
36.12
42.68
45.70
45.67
43.23
39.05
33.88
28.53
23.76
20.24
18.39
18.35
19.95
22.78
26.26
29.81
32.91
35.21
36.55
36.89
36.26
34.73
32.34
29.14
25.25
20.87
16.32
11.97
8.09
4.84
2.13
-0.28
-2.70
-5.42
-8.55
-12.06
-15.78
-19.49
-22.98
-26.18
-29.07
-31.77
-34.50
-37.60
-41.46
-46.44
-52.61
-59.52
-66.08
-70.69
-71.62
-67.61
-58.31
-44.51
-27.92
-10.58
5.60
19.35
30.01
37.39
41.58
42.78
41.32
37.72
32.69
27.12
21.88
17.73
15.18
14.42
15.38
17.69
20.79
24.02
26.77
28.67
29.63
29.79
29.41
28.64
27.51
25.89
23.65
20.72
17.22
13.36
9.42
5.61
2.03
-1.37
-4.74
-8.19
-11.80
-15.49
-19.08
-22.35
-25.13
-27.44
-29.54
-31.86
-34.91
-39.13
-44.61
-51.03
-57.51
-62.78
-65.34
-63.94
-57.81
-47.04
-32.59
-16.06
0.69
16.03
28.80
38.46
44.94
48.42
49.14
47.42
43.62
38.36
32.47
26.92
22.59
20.12
19.65
20.91
23.34
26.29
29.23
31.80
33.82
35.19
35.77
35.38
33.83
31.03
27.07
22.25
17.03
11.92
7.33
3.40
0.02
-3.10
-6.36
-10.04
-14.21
-18.70
-23.16
-27.22
-30.66
-33.47
-35.94
-38.58
-41.97
-46.56
-52.36
-58.85
-64.86
-68.81
-69.12
-64.63
-55.04
-41.03
-24.13
-6.34
10.36
24.49
35.20
42.34
46.15
47.13
45.79
42.61
38.09
32.86
27.58
23.01
19.75
18.15
18.20
19.58
21.75
24.17
26.41
28.26
29.66
30.55
30.84
30.27
28.57
25.57
21.43
16.56
11.60
7.10
3.35
0.26
-2.55
-5.55
-9.06
-13.20
-17.75
-22.31
-26.43
-29.81
-32.39
-34.50
-36.68
-39.61
-43.85
-49.62
-56.50
-63.48
-68.99
-71.30
-69.01
-61.51
-49.23
-33.54
-16.39
0.22
14.78
26.38
34.75
39.98
42.34
42.17
39.88
36.03
31.30
26.41
22.04
18.71
16.72
16.13
16.81
18.47
20.72
23.19
25.55
27.50
28.81
29.21
28.48
26.47
23.24
19.10
14.53
10.02
5.89
2.19
-1.34
-4.99
-9.01
-13.40
-17.93
-22.27
-26.15
-29.53
-32.58
-35.68
-39.29
-43.82
-49.42
-55.80
-62.11
-67.04
-69.06
-66.87
-59.84
-48.30
-33.51
-17.30
-1.57
12.17
23.00
30.64
35.23
37.12
36.65
34.21
30.16
25.02
19.42
14.14
9.95
7.42
6.72
7.63
9.58
11.93
14.12
15.90
17.23
18.16
18.65
18.50
17.41
15.18
11.72
7.19
1.95
-3.58
-8.96
-13.90
-18.28
-22.17
-25.77
-29.31
-32.98
-36.96
-41.37
-46.28
-51.54
-56.59
-60.47
-61.90
-59.69
-53.15
-42.49
-28.79
-13.76
0.86
13.69
23.99
31.56
36.47
38.84
38.76
36.35
32.01
26.51
20.86
16.08
12.87
11.40
11.36
12.20
13.42
14.75
16.14
17.65
19.17
20.40
20.85
20.02
17.64
13.73
8.70
3.16
-2.24
-7.04
-11.12
-14.72
-18.33
-22.54
-27.81
-34.25
-41.47
-48.54
-54.05
-56.47
-54.57
-47.84
-36.72
-22.51
-7.01
8.01
21.16
31.68
39.30
44.06
46.14
45.77
43.26
39.08
33.91
28.56
23.79
20.21
18.12
17.50
18.05
19.36
20.97
22.51
23.73
24.46
24.56
23.95
22.58
20.40
17.39
13.54
8.91
3.66
-1.95
-7.54
-12.80
-17.54
-21.78
-25.79
-29.95
-34.63
-40.09
-46.31
-52.86
-58.97
-63.50
-65.13
-62.76
-55.75
-44.27
-29.37
-12.72
3.75
18.31
29.78
37.66
42.01
43.27
42.07
39.08
35.01
30.54
26.37
23.05
20.95
20.17
20.60
21.98
24.04
26.51
29.17
31.74
33.88
35.18
35.24
33.84
31.05
27.19
22.79
18.31
14.02
9.87
5.61
0.92
-4.37
-10.12
-15.97
-21.45
-26.19
-30.09
-33.31
-36.25
-39.39
-43.22
-48.05
-53.77
-59.75
-64.66
-66.84
-64.69
-57.28
-44.80
-28.55
-10.63
6.74
21.84
33.71
42.20
47.62
50.45
51.08
49.81
46.98
43.09
38.85
35.05
32.35
31.11
31.25
32.42
34.09
35.86
37.52
38.94
40.02
40.47
39.91
37.95
34.42
29.46
23.52
17.21
11.10
5.46
0.30
-4.67
-9.81
-15.34
-21.25
-27.24
-32.88
-37.82
-41.90
-45.24
-48.19
-51.23
-54.82
-59.32
-64.75
-70.69
-76.13
-79.63
-79.64
-74.97
-65.30
-51.32
-34.62
-17.15
-0.75
13.23
24.07
31.56
35.80
37.08
35.81
32.57
28.14
23.37
19.08
15.89
14.12
13.77
14.67
16.52
18.99
21.79
24.59
27.08
28.95
29.91
29.80
28.53
26.16
22.89
19.00
14.90
10.88
7.19
3.79
0.51
-2.98
-6.89
-11.21
-15.69
-19.91
-23.53
-26.42
-28.75
-30.96
-33.67
-37.47
-42.68
-49.08
-55.70
-60.94
-62.91
-60.07
-51.81
-38.75
-22.59
-5.50
10.47
23.94
34.31
41.54
45.89
47.62
47.00
44.32
40.06
34.89
29.64
25.13
22.03
20.70
21.09
22.83
25.34
28.04
30.50
32.53
34.04
34.97
35.13
34.23
32.03
28.51
23.94
18.90
14.04
9.81
6.26
3.05
-0.36
-4.45
-9.26
-14.49
-19.60
-24.05
-27.60
-30.35
-32.63
-34.86
-37.50
-41.00
-45.73
-51.78
-58.65
-65.13
-69.41
-69.59
-64.41
-53.73
-38.67
-21.24
-3.66
12.26
25.40
35.33
42.04
45.68
46.53
44.97
41.54
36.98
32.13
27.76
24.50
22.71
22.42
23.44
25.38
27.82
30.42
32.88
35.02
36.65
37.60
37.67
36.71
34.63
31.52
27.60
23.23
18.78
14.51
10.51
6.65
2.70
-1.61
-6.40
-11.54
-16.71
-21.49
-25.51
-28.67
-31.14
-33.31
-35.70
-38.81
-43.04
-48.56
-55.21
-62.29
-68.56
-72.39
-72.16
-66.76
-56.06
-40.99
-23.38
-5.34
11.23
25.07
35.58
42.67
46.55
47.51
45.99
42.53
37.83
32.66
27.80
23.86
21.25
20.09
20.24
21.43
23.27
25.45
27.68
29.79
31.65
33.11
33.96
33.90
32.60
29.90
25.88
20.90
15.51
10.30
5.64
1.62
-1.99
-5.53
-9.31
-13.43
-17.72
-21.91
-25.72
-29.04
-31.97
-34.76
-37.74
-41.25
-45.57
-50.90
-57.14
-63.81
-69.85
-73.73
-73.88
-69.17
-59.42
-45.55
-29.30
-12.67
2.66
15.58
25.59
32.61
36.69
38.04
36.94
33.85
29.37
24.17
18.91
14.15
10.38
7.95
7.09
7.81
9.85
12.75
15.89
18.65
20.59
21.46
21.27
20.16
18.38
16.11
13.41
10.26
6.58
2.36
-2.35
-7.35
-12.40
-17.24
-21.71
-25.75
-29.37
-32.69
-35.97
-39.61
-44.01
-49.40
-55.52
-61.49
-65.84
-66.92
-63.42
-54.90
-42.00
-26.20
-9.46
6.40
20.08
30.89
38.69
43.63
45.95
45.86
43.62
39.57
34.23
28.36
22.80
18.35
15.53
14.49
14.98
16.48
18.40
20.28
21.83
22.93
23.55
23.59
22.89
21.23
18.44
14.45
9.44
3.76
-2.14
-7.83
-13.07
-17.85
-22.32
-26.73
-31.35
-36.44
-42.16
-48.55
-55.32
-61.77
-66.72
-68.67
-66.28
-58.80
-46.43
-30.45
-12.77
4.48
19.63
31.71
40.48
46.14
49.02
49.38
47.36
43.27
37.65
31.33
25.31
20.50
17.43
16.13
16.26
17.30
18.75
20.32
21.83
23.18
24.20
24.56
23.92
21.97
18.62
14.04
8.57
2.65
-3.37
-9.24
-14.80
-19.94
-24.61
-28.85
-32.89
-37.15
-42.16
-48.29
-55.43
-62.82
-69.04
-72.35
-71.21
-64.76
-53.15
-37.54
-19.73
-1.78
14.53
27.97
37.97
44.53
47.96
48.68
47.10
43.59
38.63
32.81
26.96
21.98
18.65
17.43
18.31
20.80
24.14
27.57
30.44
32.41
33.37
33.30
32.19
29.99
26.62
22.04
16.32
9.75
2.74
-4.27
-10.89
-16.86
-22.09
-26.64
-30.74
-34.73
-39.06
-44.25
-50.68
-58.34
-66.61
-74.18
-79.24
-79.95
-75.03
-64.23
-48.47
-29.59
-9.86
8.64
24.40
36.61
45.09
49.98
51.61
50.36
46.71
41.28
34.87
28.40
22.80
18.81
16.82
16.77
18.25
20.61
23.22
25.63
27.62
29.08
29.82
29.55
27.86
24.45
19.27
12.64
5.22
-2.21
-9.02
-14.88
-19.85
-24.29
-28.67
-33.47
-39.05
-45.62
-53.04
-60.70
-67.46
-71.72
-71.87
-66.75
-56.16
-41.05
-23.22
-4.86
12.04
26.16
36.80
43.81
47.31
47.55
44.90
39.88
33.27
26.03
19.15
13.48
9.52
7.39
6.87
7.58
9.16
11.33
13.81
16.20
17.99
18.53
17.35
14.32
9.74
4.26
-1.40
-6.76
-11.70
-16.51
-21.77
-28.08
-35.82
-44.83
-54.24
-62.45
-67.46
-67.41
-61.27
-49.27
-32.90
-14.45
3.66
19.55
32.14
41.16
46.75
49.17
48.63
45.39
39.91
32.98
25.72
19.30
14.62
12.07
11.52
12.41
14.09
16.05
18.00
19.83
21.41
22.46
22.51
21.02
17.64
12.40
5.75
-1.49
-8.51
-14.72
-20.01
-24.76
-29.67
-35.55
-42.97
-51.97
-61.82
-70.98
-77.42
-79.13
-74.74
-64.00
-47.99
-28.72
-8.54
10.46
26.90
40.05
49.62
55.52
57.71
56.35
51.96
45.46
38.11
31.22
25.89
22.74
21.88
22.95
25.28
28.16
30.97
33.37
35.23
36.51
37.11
36.75
35.00
31.42
25.87
18.55
10.08
1.29
-6.95
-14.11
-20.03
-24.99
-29.62
-34.70
-40.95
-48.79
-58.05
-67.86
-76.62
-82.33
-82.98
-77.24
-64.94
-47.19
-26.14
-4.33
15.93
33.05
46.24
55.34
60.48
61.92
60.11
55.72
49.79
43.55
38.22
34.63
33.14
33.51
35.22
37.61
40.17
42.55
44.54
45.98
46.62
46.17
44.30
40.82
35.86
29.85
23.45
17.37
12.05
7.55
3.52
-0.61
-5.35
-10.85
-16.85
-22.79
-28.04
-32.26
-35.51
-38.27
-41.29
-45.44
-51.42
-59.51
-69.20
-79.10
-86.97
-90.26
-86.90
-76.04
-58.43
-36.34
-12.74
9.49
28.29
42.66
52.47
58.08
60.01
58.81
55.13
49.75
43.68
38.02
33.81
31.75
32.03
34.32
37.86
41.78
45.32
48.06
49.91
50.93
51.09
50.21
47.95
44.08
38.64
32.12
25.31
19.01
13.75
9.53
5.93
2.29
-1.96
-7.03
-12.70
-18.45
-23.72
-28.12
-31.59
-34.43
-37.15
-40.37
-44.69
-50.57
-58.09
-66.83
-75.64
-82.76
-86.08
-83.82
-75.05
-60.12
-40.70
-19.17
1.92
20.59
35.64
46.65
53.61
56.68
56.11
52.32
46.11
38.64
31.31
25.36
21.66
20.42
21.31
23.72
26.94
30.44
33.81
36.76
38.94
39.98
39.53
37.39
33.66
28.73
23.19
17.64
12.50
7.87
3.61
-0.67
-5.27
-10.31
-15.62
-20.81
-25.42
-29.18
-32.15
-34.70
-37.49
-41.27
-46.53
-53.41
-61.31
-68.91
-74.26
-75.27
-70.34
-58.88
-41.70
-20.78
1.29
22.00
39.57
53.10
62.46
67.95
69.97
68.91
65.20
59.49
52.67
45.84
40.06
36.12
34.29
34.37
35.82
38.01
40.40
42.52
43.96
44.24
42.88
39.48
33.95
26.57
17.92
8.66
-0.68
-9.87
-18.97
-28.16
-37.55
-47.04
-56.24
-64.66
-71.81
-77.42
-81.50
-84.34
-86.43
-88.36
-90.65
-93.59
-96.94
-99.78
-100.55
-97.41
-88.80
-74.13
-54.15
-30.78
-6.63
15.84
34.86
49.54
59.78
65.84
68.08
66.90
62.79
56.51
49.04
41.54
35.09
30.49
28.20
28.22
30.25
33.73
37.95
42.14
45.57
47.70
48.24
47.20
44.80
41.37
37.17
32.28
26.70
20.38
13.43
6.09
-1.29
-8.38
-14.90
-20.74
-25.93
-30.67
-35.35
-40.49
-46.61
-53.88
-61.81
-69.15
-74.05
-74.63
-69.56
-58.66
-42.92
-24.29
-5.05
12.74
27.61
38.77
46.03
49.58
49.84
47.39
42.91
37.22
31.15
25.54
21.05
18.14
16.92
17.26
18.80
21.07
23.57
25.86
27.53
28.27
27.85
26.24
23.53
19.93
15.68
11.01
6.09
1.00
-4.16
-9.31
-14.33
-19.11
-23.52
-27.55
-31.20
-34.61
-38.02
-41.79
-46.36
-52.06
-58.85
-66.09
-72.42
-76.02
-75.15
-68.69
-56.64
-40.27
-21.69
-3.28
12.96
25.83
34.92
40.37
42.57
41.90
38.74
33.52
26.85
19.54
12.54
6.82
3.15
1.88
2.86
5.44
8.71
11.72
13.77
14.54
14.04
12.43
9.81
6.18
1.49
-4.26
-10.87
-17.92
-24.83
-31.07
-36.33
-40.54
-43.95
-47.01
-50.24
-54.11
-58.91
-64.75
-71.46
-78.52
-85.03
-89.83
-91.73
-89.84
-83.90
-74.44
-62.68
-50.20
-38.53
-28.86
-21.86
-17.80
-16.68
-18.42
-22.87
-29.75
-38.57
-48.52
-58.64
-67.98
-75.87
-82.13
-87.02
-90.99
-94.39
-97.04
-98.29
-97.20
-93.11
-86.04
-76.98
-67.62
-59.88
-55.12
-53.65
-54.69
-56.90
