1636466561.00
64.000000
-0.00
-0.00
-0.00
-0.00
-0.00
-0.00
-0.00
-0.00
-0.00
-0.00
0.00
0.01
0.01
-0.00
-0.03
-0.05
-0.05
0.00
0.13
0.36
0.66
1.01
1.37
1.72
2.06
2.40
2.79
3.24
3.80
4.42
5.06
5.66
6.20
6.68
7.15
7.68
8.31
9.14
10.09
11.04
11.88
12.56
13.14
13.76
14.65
15.96
17.91
20.32
22.90
25.38
27.58
29.57
31.68
34.32
37.81
42.54
48.15
54.10
59.83
64.97
69.58
74.14
79.34
85.71
93.76
103.00
112.62
121.73
129.77
136.75
143.30
150.75
157.77
166.64
177.95
191.79
206.97
220.57
228.25
225.36
208.53
176.87
132.76
80.05
23.07
-34.94
-92.44
-149.16
-205.23
-260.37
-313.74
-363.87
-409.83
-450.91
-486.50
-515.74
-537.23
-549.22
-549.95
-538.35
-514.17
-478.62
-433.80
-382.34
-326.87
-269.65
-212.40
-156.37
-102.61
-51.97
-5.44
36.11
72.02
102.02
126.24
145.19
159.58
170.12
177.42
181.90
183.83
183.43
181.00
176.86
171.44
165.14
158.30
151.18
143.92
136.58
129.21
121.86
114.58
107.45
100.54
93.91
87.59
81.59
75.93
70.60
65.64
61.03
56.80
52.95
49.48
46.37
43.62
41.24
39.19
37.48
36.12
35.11
34.44
34.12
34.10
34.36
34.84
35.44
36.04
36.48
36.60
36.21
35.15
33.30
30.56
26.95
22.52
17.35
11.64
5.63
-0.41
-6.22
-11.54
-16.16
-19.92
-22.72
-24.56
-25.44
-25.47
-24.78
-23.49
-21.78
-19.78
-17.60
-15.34
-13.05
-10.75
-8.48
-6.22
-3.97
-1.72
0.59
2.98
5.48
8.13
10.95
13.90
16.94
20.07
23.25
26.50
29.81
33.22
36.77
40.53
44.42
48.40
52.47
56.62
60.89
65.32
69.95
74.85
80.11
85.58
91.15
96.77
102.41
108.04
113.67
119.31
125.00
130.82
136.49
141.80
146.53
150.48
153.35
154.77
154.18
150.83
146.13
140.56
134.39
127.81
120.94
113.88
106.72
99.60
92.65
86.09
79.76
73.65
67.74
62.08
56.69
51.59
46.83
42.47
38.56
34.94
31.48
28.13
24.86
21.69
18.64
15.77
13.16
10.89
8.86
7.00
5.27
3.64
2.12
0.73
-0.48
-1.46
-2.22
-2.80
-3.29
-3.76
-4.27
-4.81
-5.39
-5.97
-6.56
-7.16
-7.84
-8.71
-9.81
-11.17
-12.71
-14.31
-15.83
-17.18
-18.39
-19.62
-21.08
-22.97
-25.39
-28.25
-31.32
-34.28
-36.97
-39.44
-41.99
-45.07
-49.11
-54.27
-60.39
-66.99
-73.52
-79.59
-85.24
-90.93
-97.38
-105.27
-114.88
-125.94
-137.82
-149.70
-161.03
-171.72
-182.18
-193.17
-205.64
-220.61
-238.96
-260.95
-285.63
-310.52
-331.81
-345.33
-348.00
-339.01
-320.19
-295.24
-268.21
-242.10
-218.14
-196.10
-175.21
-155.09
-136.03
-118.73
-103.69
-90.80
-79.41
-68.70
-58.23
-48.06
-38.86
-31.39
-26.15
-23.02
-21.32
-20.04
-18.32
-15.69
-12.32
-8.79
-5.87
-4.20
-4.10
-5.50
-8.12
-11.54
-15.22
-18.48
-20.46
-20.15
-16.75
-9.89
-0.02
11.72
23.77
34.62
43.19
49.08
52.39
53.49
52.88
50.96
48.14
44.90
41.79
39.37
38.01
37.83
38.58
39.77
40.82
41.28
40.95
39.90
38.36
36.59
34.76
32.84
30.71
28.17
25.14
21.68
17.98
14.30
10.92
8.03
5.72
3.88
2.30
0.69
-1.23
-3.71
-6.92
-10.84
-15.20
-19.40
-22.45
-23.19
-20.65
-14.41
-4.91
6.57
18.25
28.48
36.15
40.98
43.39
44.02
43.37
41.72
39.19
36.04
32.80
30.22
28.93
29.16
30.59
32.49
34.06
34.71
34.29
32.97
31.11
28.99
26.78
24.48
22.01
19.24
16.03
12.36
8.24
3.89
-0.39
-4.23
-7.36
-9.67
-11.33
-12.69
-14.22
-16.41
-19.65
-24.07
-29.39
-34.85
-39.25
-41.24
-39.67
-34.10
-25.00
-13.57
-1.49
9.67
18.77
25.32
29.32
31.10
31.07
29.63
27.25
24.44
21.82
19.95
19.25
19.83
21.43
23.51
25.37
26.42
26.31
25.04
22.90
20.32
17.74
15.37
13.13
10.72
7.74
3.93
-0.60
-5.39
-9.84
-13.44
-16.05
-17.95
-19.70
-21.89
-24.89
-28.78
-33.26
-37.83
-41.76
-44.16
-44.09
-40.82
-34.09
-24.34
-12.73
-0.82
9.87
18.32
24.23
27.85
29.72
30.28
29.76
28.28
25.96
23.20
20.59
18.73
18.01
18.40
19.53
20.79
21.61
21.61
20.72
19.03
16.78
14.15
11.27
8.23
5.01
1.71
-1.57
-4.60
-7.18
-9.20
-10.66
-11.81
-13.03
-14.78
-17.41
-21.09
-25.70
-30.85
-35.81
-39.57
-41.03
-39.28
-33.94
-25.30
-14.35
-2.50
8.78
18.28
25.33
29.73
31.63
31.39
29.46
26.35
22.68
19.13
16.36
14.81
14.55
15.32
16.53
17.50
17.74
17.08
15.72
14.04
12.38
10.85
9.23
7.15
4.25
0.46
-3.96
-8.54
-12.71
-16.06
-18.54
-20.36
-21.99
-23.93
-26.62
-30.27
-34.76
-39.68
-44.20
-47.23
-47.65
-44.65
-38.03
-28.39
-17.03
-5.52
4.72
12.79
18.42
21.79
23.23
23.04
21.50
18.97
15.98
13.22
11.30
10.59
11.05
12.30
13.79
15.00
15.59
15.45
14.67
13.43
11.91
10.18
8.18
5.76
2.85
-0.48
-3.97
-7.26
-10.03
-12.19
-13.96
-15.81
-18.32
-21.91
-26.70
-32.28
-37.81
-42.10
-43.95
-42.44
-37.27
-28.87
-18.21
-6.64
4.56
14.38
22.23
27.86
31.29
32.70
32.38
30.70
28.20
25.45
23.03
21.43
20.88
21.34
22.40
23.51
24.12
23.90
22.87
21.31
19.61
17.94
16.22
14.11
11.25
7.53
3.21
-1.12
-4.92
-7.89
-10.19
-12.30
-14.83
-18.24
-22.68
-27.97
-33.70
-39.19
-43.58
-45.90
-45.23
-41.00
-33.30
-22.98
-11.43
-0.22
9.36
16.53
21.04
23.03
22.77
20.60
17.00
12.67
8.45
5.24
3.67
3.88
5.52
7.95
10.43
12.47
13.89
14.77
15.21
15.19
14.49
12.78
9.91
6.03
1.68
-2.43
-5.65
-7.73
-8.85
-9.61
-10.75
-12.89
-16.41
-21.25
-26.93
-32.49
-36.69
-38.15
-35.80
-29.30
-19.25
-7.09
5.27
16.11
24.26
29.32
31.52
31.30
29.18
25.54
20.86
15.78
11.23
8.14
7.22
8.57
11.67
15.49
18.94
21.20
21.92
21.24
19.51
17.10
14.26
11.10
7.79
4.57
1.76
-0.52
-2.47
-4.67
-7.84
-12.36
-17.93
-23.30
-26.62
-26.02
-20.31
-9.46
5.29
21.90
38.21
52.40
63.47
71.10
75.59
77.49
77.64
77.03
76.75
77.72
80.28
83.95
87.38
88.75
86.46
79.66
68.50
53.97
37.42
20.19
3.41
-12.19
-26.14
-38.38
-49.21
-59.21
-69.14
-79.67
-91.22
-103.76
-116.78
-129.18
-139.19
-144.71
-143.76
-135.23
-119.42
-98.23
-74.55
-51.45
-31.34
-15.43
-3.94
3.51
7.39
8.04
5.88
1.70
-3.31
-7.72
-10.40
-11.04
-10.25
-9.33
-9.71
-12.26
-16.95
-22.90
-28.93
-34.14
-38.28
-41.75
-45.23
-49.16
-53.52
-57.80
-61.33
-63.61
-64.43
-63.74
-61.39
-56.74
-48.86
-36.92
-20.66
-0.77
21.22
43.53
64.66
83.80
100.88
116.08
129.50
140.73
148.93
153.00
152.12
146.01
135.14
120.69
104.22
87.25
70.94
55.79
41.81
28.70
16.14
3.85
-8.32
-20.58
-33.11
-46.05
-59.42
-73.08
-86.80
-100.49
-114.24
-128.20
-142.42
-156.46
-169.20
-179.06
-184.31
-183.56
-176.22
-162.77
-144.61
-123.81
-102.55
-82.57
-64.86
-49.66
-36.65
-25.49
-16.02
-8.29
-2.33
2.14
5.85
9.72
14.42
20.14
26.50
32.89
38.88
44.48
49.96
55.56
61.01
65.53
68.21
68.53
66.75
63.89
61.18
59.40
58.50
57.56
55.39
51.20
45.13
38.39
32.81
30.26
32.04
38.53
49.07
62.21
76.10
88.96
99.44
106.79
110.76
111.33
108.55
102.45
93.15
81.03
66.86
51.77
37.09
23.97
13.02
4.22
-2.97
-9.16
-14.59
-18.93
-21.53
-21.91
-20.33
-17.90
-16.21
-16.59
-19.43
-24.02
-28.99
-33.12
-35.88
-37.65
-39.33
-41.87
-45.92
-51.67
-59.01
-67.50
-76.32
-84.13
-89.13
-89.45
-83.79
-71.97
-55.15
-35.51
-15.53
2.71
18.02
29.99
38.73
44.53
47.67
48.49
47.60
45.86
44.31
43.80
44.69
46.77
49.42
51.86
53.52
54.20
54.00
53.24
52.11
50.58
48.38
45.11
40.51
34.59
27.76
20.60
13.78
7.70
2.43
-2.32
-7.07
-12.42
-18.77
-26.15
-34.06
-41.36
-46.61
-48.30
-45.38
-37.62
-25.70
-10.97
4.88
20.23
33.85
44.81
52.50
56.59
57.08
54.42
49.61
43.97
38.89
35.41
33.91
34.12
35.33
36.68
37.51
37.52
36.74
35.31
33.42
31.10
28.23
24.63
20.13
14.78
8.84
2.79
-2.90
-7.86
-12.10
-15.95
-20.00
-24.89
-30.94
-37.97
-45.11
-50.96
-53.86
-52.42
-45.88
-34.45
-19.32
-2.37
14.33
28.93
40.10
47.22
50.27
49.72
46.47
41.65
36.58
32.44
30.04
29.60
30.76
32.76
34.73
36.06
36.44
35.89
34.50
32.31
29.29
25.39
20.66
15.28
9.51
3.59
-2.31
-8.11
-13.72
-19.10
-24.31
-29.59
-35.31
-41.76
-48.80
-55.58
-60.62
-62.19
-58.89
-50.31
-37.23
-21.41
-5.03
9.96
22.28
31.39
37.32
40.33
40.76
39.06
35.86
32.03
28.55
26.29
25.62
26.35
27.84
29.26
30.00
29.75
28.58
26.67
24.12
20.85
16.72
11.69
5.92
-0.09
-5.80
-10.84
-15.20
-19.32
-23.91
-29.67
-37.00
-45.75
-55.06
-63.52
-69.45
-71.33
-68.28
-60.27
-48.17
-33.45
-17.81
-2.76
10.64
21.74
30.23
36.03
39.20
40.02
39.04
36.98
34.62
32.64
31.44
31.14
31.59
32.49
33.44
34.13
34.36
34.05
33.17
31.63
29.27
25.84
21.20
15.48
9.17
2.99
-2.40
-6.61
-9.72
-12.24
-14.88
-18.35
-23.08
-29.12
-36.01
-42.83
-48.24
-50.82
-49.49
-43.80
-34.20
-21.88
-8.35
4.90
16.76
26.62
34.16
39.28
41.97
42.36
40.81
38.00
34.79
32.01
30.27
29.73
30.15
30.99
31.70
31.88
31.40
30.36
28.97
27.30
25.34
22.88
19.71
15.73
11.05
6.00
0.99
-3.65
-7.78
-11.49
-14.96
-18.44
-22.10
-26.05
-30.41
-35.26
-40.55
-45.87
-50.40
-52.93
-52.20
-47.35
-38.40
-26.32
-12.77
0.39
11.63
20.14
25.85
29.11
30.45
30.31
28.94
26.64
23.90
21.40
19.87
19.78
21.12
23.36
25.70
27.45
28.20
27.99
27.07
25.69
23.96
21.82
19.13
15.79
11.88
7.58
3.10
-1.33
-5.58
-9.60
-13.44
-17.22
-21.14
-25.46
-30.38
-35.93
-41.80
-47.25
-51.18
-52.44
-50.07
-43.80
-34.10
-22.16
-9.53
2.36
12.45
20.23
25.56
28.54
29.28
28.02
25.11
21.23
17.33
14.29
12.78
12.94
14.40
16.46
18.37
19.62
20.03
19.69
18.81
17.56
16.00
14.16
11.99
9.49
6.67
3.55
0.23
-3.18
-6.50
-9.56
-12.29
-14.72
-17.04
-19.51
-22.46
-26.15
-30.73
-35.98
-41.34
-45.88
-48.42
-47.93
-43.89
-36.49
-26.64
-15.69
-4.98
4.41
11.90
17.25
20.40
21.44
20.57
18.25
15.24
12.47
10.80
10.66
12.00
14.27
16.68
18.50
19.33
19.14
18.16
16.78
15.34
13.95
12.49
10.64
8.08
4.59
0.28
-4.45
-8.99
-12.77
-15.49
-17.28
-18.64
-20.20
-22.51
-25.76
-29.79
-34.10
-37.95
-40.56
-41.16
-39.14
-34.19
-26.43
-16.48
-5.45
5.31
14.46
20.99
24.50
25.15
23.56
20.58
17.06
13.67
10.89
9.02
8.17
8.30
9.17
10.40
11.53
12.17
12.09
11.22
9.72
7.81
5.65
3.30
0.69
-2.25
-5.52
-8.93
-12.13
-14.80
-16.82
-18.31
-19.64
-21.31
-23.74
-27.14
-31.43
-36.15
-40.52
-43.50
-44.09
-41.58
-35.82
-27.34
-17.19
-6.69
3.00
11.00
16.85
20.40
21.69
20.92
18.43
14.79
10.71
6.98
4.31
3.17
3.58
5.18
7.36
9.45
11.02
11.90
12.18
11.96
11.21
9.78
7.49
4.30
0.43
-3.72
-7.72
-11.30
-14.44
-17.31
-20.10
-23.01
-26.23
-29.87
-33.98
-38.33
-42.30
-44.92
-45.15
-42.14
-35.70
-26.40
-15.43
-4.23
5.95
14.27
20.38
24.24
25.95
25.68
23.68
20.43
16.64
13.18
10.75
9.72
9.94
10.88
11.88
12.46
12.48
12.04
11.36
10.47
9.14
6.96
3.61
-0.97
-6.40
-12.02
-17.16
-21.40
-24.73
-27.55
-30.49
-34.21
-39.10
-45.09
-51.64
-57.72
-61.96
-63.05
-60.07
-52.86
-42.14
-29.26
-15.90
-3.53
6.87
14.85
20.33
23.48
24.56
23.93
22.15
19.88
17.87
16.73
16.71
17.65
19.09
20.43
21.27
21.40
20.92
20.00
18.80
17.31
15.26
12.39
8.50
3.64
-1.85
-7.48
-12.77
-17.48
-21.62
-25.47
-29.42
-33.82
-38.79
-44.06
-48.97
-52.51
-53.59
-51.35
-45.45
-36.24
-24.78
-12.48
-0.76
9.27
16.97
22.14
24.88
25.58
24.74
23.00
21.04
19.50
18.80
19.05
20.07
21.45
22.76
23.67
24.05
23.91
23.29
22.21
20.56
18.16
14.91
10.85
6.22
1.38
-3.31
-7.62
-11.52
-15.18
-18.88
-22.96
-27.70
-33.18
-39.17
-44.99
-49.58
-51.70
-50.31
-44.85
-35.62
-23.67
-10.49
2.39
13.74
22.87
29.50
33.62
35.36
35.00
32.95
29.89
26.68
24.20
23.07
23.47
25.06
27.17
29.05
30.15
30.21
29.33
27.73
25.61
22.96
19.68
15.58
10.62
5.00
-0.85
-6.41
-11.24
-15.17
-18.36
-21.28
-24.46
-28.38
-33.22
-38.68
-43.98
-47.95
-49.31
-47.09
-40.93
-31.31
-19.40
-6.72
5.27
15.48
23.29
28.43
30.88
30.74
28.38
24.54
20.26
16.77
15.01
15.46
17.85
21.45
25.21
28.31
30.22
30.83
30.30
28.79
26.44
23.27
19.28
14.61
9.50
4.34
-0.52
-4.88
-8.68
-12.06
-15.26
-18.63
-22.47
-27.07
-32.47
-38.32
-43.74
-47.46
-48.19
-45.05
-37.94
-27.64
-15.53
-3.12
8.28
17.89
25.28
30.26
32.70
32.62
30.32
26.49
22.22
18.70
16.94
17.34
19.65
23.11
26.75
29.76
31.66
32.27
31.63
29.81
26.91
23.08
18.56
13.60
8.46
3.30
-1.82
-6.95
-12.04
-17.02
-21.85
-26.54
-31.28
-36.29
-41.66
-47.02
-51.52
-53.98
-53.23
-48.54
-39.90
-28.13
-14.62
-0.98
11.38
21.48
28.83
33.33
35.14
34.64
32.35
29.00
25.47
22.64
21.15
21.22
22.57
24.57
26.49
27.79
28.28
28.06
27.31
26.12
24.32
21.62
17.70
12.53
6.40
-0.08
-6.22
-11.52
-15.80
-19.28
-22.45
-25.90
-30.11
-35.31
-41.33
-47.55
-52.93
-56.15
-55.99
-51.64
-43.08
-31.13
-17.26
-3.23
9.46
19.78
27.26
31.88
33.92
33.82
32.14
29.54
26.84
24.81
23.99
24.57
26.30
28.60
30.83
32.45
33.19
33.08
32.30
31.00
29.16
26.59
23.09
18.58
13.22
7.39
1.59
-3.83
-8.70
-13.12
-17.31
-21.66
-26.53
-32.17
-38.54
-45.13
-50.98
-54.75
-55.22
-51.63
-44.04
-33.28
-20.71
-7.72
4.51
15.15
23.75
30.02
33.79
35.09
34.19
31.73
28.60
25.77
24.01
23.70
24.75
26.60
28.55
29.99
30.61
30.39
29.52
28.09
26.09
23.40
19.86
15.43
10.31
4.84
-0.56
-5.48
-9.69
-13.16
-16.08
-18.86
-22.03
-26.07
-31.15
-36.88
-42.31
-46.04
-46.70
-43.41
-36.12
-25.63
-13.38
-0.96
10.23
19.22
25.54
29.10
30.11
29.07
26.64
23.69
21.01
19.23
18.63
19.16
20.46
22.06
23.52
24.54
24.92
24.60
23.58
21.94
19.77
17.18
14.24
10.92
7.19
3.10
-1.21
-5.41
-9.18
-12.37
-15.13
-17.91
-21.26
-25.45
-30.23
-34.73
-37.70
-37.90
-34.57
-27.76
-18.29
-7.51
3.12
12.40
19.60
24.41
26.84
27.11
25.55
22.71
19.32
16.18
14.00
13.12
13.45
14.57
15.89
16.92
17.36
17.14
16.27
14.76
12.65
9.99
6.87
3.45
-0.13
-3.75
-7.28
-10.67
-13.85
-16.82
-19.73
-22.85
-26.45
-30.58
-34.82
-38.27
-39.70
-37.99
-32.58
-23.79
-12.77
-1.17
9.36
17.67
23.19
25.93
26.24
24.58
21.44
17.39
13.08
9.23
6.49
5.26
5.55
7.02
9.10
11.13
12.60
13.20
12.81
11.46
9.31
6.57
3.50
0.32
-2.73
-5.51
-7.96
-10.21
-12.55
-15.37
-18.99
-23.38
-28.02
-31.87
-33.63
-32.23
-27.30
-19.34
-9.62
0.27
8.93
15.45
19.53
21.31
21.11
19.30
16.26
12.49
8.51
4.94
2.30
0.96
0.97
2.14
4.05
6.17
7.98
9.01
9.02
7.94
5.91
3.21
0.16
-2.98
-6.04
-9.04
-12.08
-15.36
-19.10
-23.45
-28.33
-33.30
-37.53
-39.91
-39.36
-35.31
-27.94
-18.20
-7.57
2.51
10.95
17.22
21.27
23.27
23.40
21.86
18.92
15.11
11.17
7.94
6.09
5.85
6.98
8.80
10.46
11.20
10.60
8.68
5.72
2.20
-1.45
-4.99
-8.32
-11.43
-14.40
-17.31
-20.32
-23.65
-27.49
-31.93
-36.75
-41.30
-44.56
-45.37
-42.79
-36.50
-26.96
-15.39
-3.47
7.20
15.52
21.02
23.84
24.50
23.59
21.63
19.05
16.25
13.64
11.62
10.46
10.22
10.74
11.63
12.48
12.89
12.61
11.53
9.64
7.03
3.85
0.38
-3.10
-6.26
-8.97
-11.25
-13.39
-15.80
-18.88
-22.83
-27.49
-32.25
-36.05
-37.70
-36.19
-31.08
-22.81
-12.57
-1.97
7.45
14.71
19.48
22.00
22.76
22.21
20.67
18.43
15.92
13.62
12.03
11.45
11.82
12.78
13.81
14.46
14.49
13.92
12.90
11.54
9.85
7.72
5.00
1.71
-1.97
-5.71
-9.07
-11.79
-13.90
-15.74
-17.87
-20.81
-24.74
-29.32
-33.73
-36.87
-37.68
-35.44
-29.99
-21.81
-11.84
-1.32
8.50
16.56
22.12
24.88
24.97
22.93
19.60
15.89
12.67
10.60
10.03
10.95
12.98
15.46
17.62
18.77
18.58
17.16
14.99
12.63
10.48
8.54
6.52
4.06
1.05
-2.32
-5.61
-8.40
-10.58
-12.39
-14.38
-17.03
-20.57
-24.73
-28.81
-31.83
-32.83
-31.18
-26.72
-19.79
-11.22
-2.09
6.49
13.55
18.47
20.97
21.17
19.47
16.50
12.97
9.60
7.01
5.65
5.74
7.21
9.64
12.41
14.81
16.26
16.52
15.65
13.93
11.69
9.14
6.34
3.30
0.04
-3.28
-6.41
-9.08
-11.20
-12.93
-14.67
-16.94
-20.18
-24.51
-29.54
-34.43
-38.04
-39.27
-37.36
-32.20
-24.33
-14.80
-4.89
4.15
11.47
16.60
19.53
20.53
19.96
18.23
15.73
12.87
10.16
8.12
7.11
7.24
8.31
9.88
11.43
12.61
13.21
13.23
12.68
11.53
9.68
7.02
3.56
-0.54
-4.95
-9.29
-13.24
-16.67
-19.71
-22.77
-26.26
-30.42
-35.07
-39.48
-42.57
-43.21
-40.63
-34.70
-26.05
-15.82
-5.36
4.11
11.73
17.07
20.04
20.88
20.03
18.09
15.72
13.60
12.19
11.74
12.23
13.35
14.72
15.93
16.65
16.71
16.01
14.57
12.45
9.75
6.58
3.08
-0.62
-4.38
-8.07
-11.58
-14.86
-17.91
-20.91
-24.08
-27.68
-31.71
-35.78
-39.03
-40.31
-38.60
-33.42
-25.10
-14.76
-3.86
6.18
14.41
20.42
24.24
26.07
26.19
24.93
22.63
19.72
16.72
14.08
12.21
11.38
11.57
12.55
13.83
14.82
15.03
14.19
12.37
9.84
6.95
4.00
1.12
-1.61
-4.19
-6.53
-8.66
-10.73
-13.07
-16.08
-19.99
-24.66
-29.45
-33.37
-35.34
-34.54
-30.66
-24.05
-15.58
-6.41
2.35
9.86
15.63
19.51
21.51
21.78
20.53
18.13
15.10
12.07
9.71
8.54
8.73
10.09
12.10
14.10
15.53
15.95
15.25
13.44
10.73
7.40
3.77
0.22
-2.92
-5.45
-7.37
-8.91
-10.44
-12.39
-15.03
-18.44
-22.42
-26.46
-29.74
-31.34
-30.37
-26.36
-19.49
-10.64
-1.21
7.32
13.79
17.66
19.00
18.34
16.33
13.58
10.66
8.02
6.10
5.23
5.56
6.95
8.98
11.11
12.76
13.61
13.47
12.39
10.52
8.03
5.14
2.08
-0.90
-3.63
-6.05
-8.30
-10.63
-13.33
-16.64
-20.69
-25.44
-30.57
-35.44
-39.13
-40.64
-39.12
-34.25
-26.47
-16.82
-6.67
2.69
10.36
15.97
19.58
21.46
21.94
21.34
20.03
18.37
16.74
15.50
14.86
14.83
15.32
16.13
17.00
17.68
17.98
17.65
16.50
14.43
11.46
7.78
3.73
-0.32
-4.04
-7.33
-10.27
-13.13
-16.22
-19.80
-24.01
-28.70
-33.44
-37.48
-39.84
-39.51
-35.89
-28.96
-19.44
-8.65
1.94
11.10
18.11
22.87
25.61
26.75
26.63
25.58
23.90
21.98
20.19
18.87
18.21
18.21
18.67
19.34
19.91
20.11
19.70
18.48
16.38
13.44
9.88
6.00
2.14
-1.45
-4.64
-7.39
-9.81
-12.12
-14.65
-17.79
-21.76
-26.47
-31.37
-35.46
-37.52
-36.52
-32.03
-24.39
-14.68
-4.35
5.27
13.19
19.00
22.68
24.46
24.66
23.65
21.87
19.87
18.22
17.35
17.43
18.31
19.62
20.92
21.85
22.20
21.88
20.86
19.15
16.80
13.93
10.75
7.45
4.18
1.02
-2.00
-4.84
-7.52
-10.12
-12.82
-15.92
-19.65
-24.04
-28.66
-32.65
-34.85
-34.15
-29.95
-22.42
-12.54
-1.80
8.21
16.28
21.76
24.63
25.26
24.16
21.84
18.74
15.33
12.14
9.69
8.38
8.29
9.18
10.54
11.85
12.67
12.83
12.31
11.20
9.53
7.32
4.59
1.41
-1.94
-5.16
-7.98
-10.25
-12.05
-13.74
-15.80
-18.64
-22.40
-26.72
-30.77
-33.45
-33.77
-31.22
-25.96
-18.74
-10.66
-2.80
4.09
9.58
13.62
16.28
17.65
17.88
17.17
15.85
14.42
13.43
13.26
13.94
15.21
16.46
17.13
16.91
15.87
14.37
12.79
11.29
9.71
7.72
5.05
1.74
-1.84
-5.25
-8.10
-10.35
-12.21
-14.09
-16.35
-19.30
-23.00
-27.33
-31.80
-35.62
-37.77
-37.27
-33.58
-26.78
-17.70
-7.58
2.21
10.59
16.92
21.00
22.99
23.15
21.90
19.75
17.28
15.06
13.56
13.00
13.35
14.35
15.63
16.86
17.78
18.26
18.20
17.55
16.29
14.41
11.95
8.98
5.64
2.08
-1.50
-4.87
-7.84
-10.30
-12.33
-14.11
-16.02
-18.36
-21.31
-24.75
-28.16
-30.68
-31.41
-29.62
-25.10
-18.23
-9.88
-1.13
7.02
13.86
19.01
22.29
23.76
23.62
22.17
19.92
17.41
15.17
13.64
13.03
13.33
14.31
15.49
16.32
16.35
15.50
13.99
12.27
10.76
9.60
8.60
7.32
5.40
2.71
-0.54
-3.87
-6.75
-8.88
-10.27
-11.21
-12.17
-13.56
-15.62
-18.37
-21.55
-24.70
-27.21
-28.45
-27.83
-25.02
-20.05
-13.42
-6.04
1.07
6.99
11.25
13.74
14.60
14.10
12.55
10.32
7.94
6.03
5.16
5.62
7.30
9.76
12.38
14.55
15.90
16.29
15.81
14.61
12.94
10.96
8.82
6.60
4.29
1.86
-0.68
-3.25
-5.66
-7.69
-9.25
-10.41
-11.43
-12.71
-14.65
-17.53
-21.28
-25.51
-29.48
-32.24
-32.92
-30.93
-26.23
-19.32
-11.13
-2.73
4.92
11.16
15.67
18.36
19.37
18.88
17.30
15.09
12.86
11.15
10.35
10.50
11.35
12.47
13.48
14.13
14.31
14.08
13.49
12.60
11.37
9.70
7.52
4.81
1.65
-1.78
-5.19
-8.32
-10.96
-13.15
-15.01
-16.79
-18.68
-20.77
-23.09
-25.65
-28.41
-31.12
-33.29
-34.13
-32.90
-29.15
-22.99
-15.16
-6.73
1.26
8.10
13.51
17.45
19.96
20.98
20.46
18.51
15.55
12.30
9.61
8.05
7.83
8.64
9.86
10.88
11.28
10.98
10.12
8.93
7.60
6.15
4.52
2.68
0.65
-1.48
-3.56
-5.52
-7.36
-9.14
-10.94
-12.84
-14.93
-17.32
-20.17
-23.56
-27.40
-31.27
-34.41
-35.87
-34.79
-30.80
-24.15
-15.74
-6.78
1.53
8.33
13.23
16.21
17.48
17.32
16.00
13.89
11.42
9.14
7.59
7.11
7.74
9.14
10.74
11.95
12.40
12.08
11.24
10.28
9.45
8.77
7.94
6.59
4.42
1.42
-2.18
-5.90
-9.23
-11.82
-13.57
-14.68
-15.60
-16.95
-19.31
-22.99
-27.87
-33.27
-38.10
-41.16
-41.42
-38.41
-32.35
-24.02
-14.58
-5.23
3.07
9.75
14.62
17.81
19.56
20.10
19.67
18.48
16.88
15.31
14.20
13.83
14.18
14.91
15.54
15.60
14.87
13.41
11.50
9.42
7.27
4.99
2.44
-0.52
-3.80
-7.13
-10.15
-12.59
-14.38
-15.69
-16.88
-18.34
-20.34
-23.05
-26.44
-30.36
-34.44
-38.07
-40.44
-40.73
-38.36
-33.22
-25.79
-16.95
-7.76
0.87
8.34
14.31
18.64
21.25
22.07
21.24
19.14
16.40
13.86
12.27
12.08
13.31
15.51
17.94
19.85
20.73
20.45
19.24
17.48
15.48
13.35
11.01
8.28
5.07
1.47
-2.23
-5.70
-8.68
-11.11
-13.12
-14.98
-16.91
-19.12
-21.68
-24.61
-27.82
-31.06
-33.87
-35.58
-35.41
-32.71
-27.23
-19.39
-10.11
-0.60
7.95
14.75
19.46
22.08
22.83
22.07
20.18
17.69
15.27
13.56
12.97
13.55
14.93
16.53
17.77
18.30
18.12
17.40
16.38
15.19
13.82
12.18
10.19
7.84
5.22
2.43
-0.49
-3.50
-6.53
-9.48
-12.20
-14.58
-16.68
-18.75
-21.22
-24.44
-28.54
-33.11
-37.21
-39.59
-39.06
-34.96
-27.51
-17.74
-7.20
2.60
10.60
16.36
19.92
21.61
21.71
20.51
18.33
15.72
13.39
12.03
12.07
13.45
15.69
18.01
19.70
20.38
20.06
19.04
17.75
16.48
15.23
13.77
11.81
9.13
5.75
1.92
-1.98
-5.54
-8.53
-10.93
-12.93
-14.84
-17.04
-19.87
-23.54
-28.12
-33.34
-38.63
-43.12
-45.76
-45.64
-42.27
-35.77
-26.89
-16.84
-6.91
1.84
8.74
13.57
16.41
17.48
17.03
15.42
13.12
10.78
9.17
8.94
10.36
13.17
16.58
19.61
21.45
21.73
20.62
18.63
16.34
14.10
11.93
9.63
6.99
3.93
0.60
-2.73
-5.80
-8.53
-10.98
-13.46
-16.26
-19.62
-23.70
-28.44
-33.61
-38.76
-43.18
-45.98
-46.26
-43.42
-37.38
-28.75
-18.61
-8.24
1.27
9.26
15.46
19.92
22.78
24.24
24.55
24.09
23.38
22.95
23.18
24.14
25.59
27.10
28.23
28.69
28.45
27.64
26.38
24.76
22.70
20.05
16.62
12.36
7.40
2.06
-3.24
-8.05
-12.09
-15.31
-17.97
-20.50
-23.49
-27.37
-32.32
-38.11
-44.08
-49.23
-52.41
-52.60
-49.19
-42.25
-32.53
-21.26
-9.85
0.60
9.47
16.59
22.04
25.84
27.97
28.41
27.37
25.42
23.38
22.08
21.97
22.96
24.49
25.83
26.42
26.10
25.02
23.56
21.99
20.39
18.60
16.42
13.71
10.48
6.94
3.33
-0.10
-3.22
-6.08
-8.81
-11.60
-14.70
-18.34
-22.68
-27.72
-33.17
-38.41
-42.55
-44.53
-43.50
-39.02
-31.29
-21.10
-9.62
1.87
12.27
20.82
27.13
31.02
32.53
31.81
29.34
25.85
22.34
19.83
19.04
20.16
22.74
25.86
28.51
29.91
29.83
28.54
26.59
24.43
22.25
19.89
17.12
13.76
9.92
5.90
2.12
-1.10
-3.75
-6.02
-8.35
-11.17
-14.90
-19.71
-25.53
-31.93
-38.05
-42.89
-45.33
-44.51
-40.10
-32.35
-22.10
-10.58
0.88
11.16
19.43
25.22
28.39
29.09
27.75
25.09
22.07
19.66
18.66
19.33
21.46
24.35
27.21
29.32
30.33
30.24
29.29
27.75
25.82
23.55
20.87
17.67
13.91
9.67
5.18
0.76
-3.23
-6.58
-9.27
-11.58
-14.02
-17.13
-21.37
-26.87
-33.36
-40.08
-45.95
-49.76
-50.46
-47.44
-40.70
-30.91
-19.28
-7.25
3.91
13.27
20.47
25.51
28.66
30.15
30.26
29.26
27.61
25.91
24.82
24.85
26.09
28.24
30.68
32.73
33.90
34.01
33.16
31.56
29.40
26.79
23.75
20.25
16.28
11.87
7.10
2.13
-2.81
-7.50
-11.74
-15.48
-18.87
-22.24
-26.06
-30.69
-36.29
-42.63
-49.04
-54.43
-57.54
-57.24
-52.89
-44.63
-33.37
-20.58
-7.80
3.68
13.20
20.60
26.06
29.89
32.27
33.34
33.26
32.35
31.14
30.22
30.08
30.88
32.38
34.01
35.14
35.35
34.56
33.04
31.18
29.27
27.37
25.26
22.61
19.18
14.93
10.09
5.03
0.18
-4.18
-8.00
-11.43
-14.76
-18.28
-22.31
-27.02
-32.52
-38.70
-45.21
-51.32
-55.91
-57.81
-56.01
-50.19
-40.79
-28.96
-16.23
-3.98
6.84
15.79
22.86
28.22
31.99
34.27
35.11
34.70
33.38
31.66
30.13
29.24
29.25
30.00
31.12
32.06
32.42
32.04
31.03
29.58
27.90
26.03
23.87
21.36
18.49
15.37
12.09
8.77
5.38
1.90
-1.69
-5.29
-8.75
-11.95
-14.90
-17.81
-21.03
-24.94
-29.85
-35.78
-42.33
-48.56
-53.15
-54.72
-52.27
-45.66
-35.60
-23.56
-11.23
-0.02
9.26
16.36
21.40
24.60
26.13
26.14
24.96
23.11
21.25
20.00
19.76
20.58
22.21
24.25
26.30
28.06
29.34
30.09
30.27
29.91
29.05
27.72
25.89
23.58
20.80
17.59
14.06
10.34
6.55
2.82
-0.78
-4.25
-7.61
-10.93
-14.30
-17.81
-21.53
-25.56
-29.94
-34.54
-38.99
-42.62
-44.50
-43.70
-39.62
-32.29
-22.41
-11.22
-0.17
9.50
16.97
21.95
24.55
25.12
24.11
22.03
19.44
16.90
14.97
14.03
14.21
15.34
17.06
18.93
20.54
21.58
21.89
21.36
20.01
18.02
15.70
13.38
11.32
9.58
7.97
6.26
4.23
1.85
-0.70
-3.20
-5.50
-7.60
-9.63
-11.77
-14.10
-16.70
-19.61
-22.95
-26.81
-31.21
-35.83
-39.95
-42.53
-42.48
-39.07
-32.24
-22.68
-11.70
-0.76
8.90
16.46
21.66
24.55
25.36
24.44
22.24
19.35
16.50
14.37
13.43
13.79
15.16
17.02
18.78
19.92
20.17
19.42
17.76
15.38
12.61
9.79
7.17
4.85
2.69
0.46
-2.06
-4.91
-7.96
-10.98
-13.75
-16.15
-18.18
-19.93
-21.59
-23.36
-25.52
-28.29
-31.71
-35.47
-38.82
-40.70
-40.16
-36.55
-29.93
-21.01
-10.97
-1.09
7.59
14.49
19.44
22.53
23.94
23.83
22.37
19.90
16.96
14.25
12.51
12.18
13.29
15.40
17.79
19.70
20.63
20.41
19.17
17.29
15.14
12.98
10.90
8.78
6.39
3.58
0.30
-3.26
-6.81
-10.06
-12.89
-15.36
-17.69
-20.13
-22.84
-25.88
-29.34
-33.27
-37.68
-42.31
-46.53
-49.33
-49.61
-46.54
-39.94
-30.45
-19.36
-8.20
1.69
9.49
14.98
18.36
20.05
20.43
19.84
18.63
17.22
16.10
15.72
16.34
17.90
19.99
22.01
23.38
23.72
22.99
21.41
19.30
16.97
14.53
11.91
9.01
5.73
2.16
-1.52
-5.06
-8.27
-11.09
-13.57
-15.80
-17.95
-20.13
-22.53
-25.36
-28.83
-33.03
-37.79
-42.54
-46.41
-48.26
-47.14
-42.56
-34.73
-24.57
-13.44
-2.78
6.32
13.30
18.13
21.06
22.42
22.51
21.60
20.04
18.33
17.01
16.53
17.08
18.49
20.31
21.98
23.04
23.26
22.62
21.29
19.45
17.25
14.70
11.79
8.44
4.69
0.60
-3.65
-7.81
-11.63
-14.91
-17.56
-19.62
-21.31
-22.98
-25.06
-27.91
-31.63
-35.90
-39.96
-42.77
-43.28
-40.83
-35.29
-27.16
-17.41
-7.14
2.54
10.79
17.07
21.12
22.99
22.92
21.34
18.83
15.99
13.40
11.59
10.87
11.31
12.67
14.51
16.30
17.59
18.11
17.82
16.80
15.21
13.17
10.79
8.14
5.26
2.19
-0.99
-4.15
-7.09
-9.51
-11.21
-12.10
-12.37
-12.48
-13.00
-14.48
-17.24
-21.23
-25.98
-30.70
-34.38
-36.11
-35.24
-31.54
-25.29
-17.12
-7.93
1.29
9.58
16.13
20.41
22.22
21.72
19.48
16.22
12.80
9.98
8.30
8.01
9.04
11.03
13.46
15.75
17.44
18.26
18.16
17.24
15.67
13.58
11.10
8.29
5.20
1.95
-1.34
-4.49
-7.36
-9.88
-12.07
-14.11
-16.25
-18.84
-22.09
-26.10
-30.70
-35.41
-39.53
-42.19
-42.58
-40.17
-34.90
-27.18
-17.89
-8.09
1.20
9.11
15.08
18.85
20.42
20.01
18.05
15.15
12.04
9.43
7.93
7.83
9.07
11.29
13.88
16.24
17.93
18.71
18.60
17.74
16.30
14.41
12.12
9.39
6.25
2.77
-0.91
-4.52
-7.79
-10.53
-12.70
-14.51
-16.37
-18.82
-22.29
-26.92
-32.37
-37.79
-41.99
-43.73
-42.09
-36.86
-28.61
-18.51
-7.99
1.67
9.66
15.59
19.45
21.37
21.57
20.37
18.25
15.81
13.68
12.35
12.02
12.60
13.80
15.26
16.64
17.73
18.38
18.50
18.08
17.05
15.35
12.88
9.55
5.42
0.68
-4.29
-9.05
-13.22
-16.64
-19.39
-21.76
-24.26
-27.41
-31.64
-36.96
-42.88
-48.39
-52.12
-52.77
-49.53
-42.42
-32.23
-20.38
-8.40
2.36
11.08
17.39
21.36
23.29
23.59
22.79
21.43
20.13
19.36
19.41
20.27
21.64
23.07
24.10
24.48
24.13
23.19
21.85
20.24
18.32
15.93
12.90
9.14
4.80
0.18
-4.29
-8.26
-11.61
-14.58
-17.70
-21.60
-26.72
-33.02
-39.95
-46.41
-51.06
-52.68
-50.49
-44.47
-35.32
-24.35
-13.03
-2.66
5.95
12.59
17.44
20.87
23.19
24.62
25.29
25.40
25.24
25.11
25.20
25.50
25.81
25.85
25.44
24.60
23.45
22.15
20.71
18.99
16.72
13.69
9.86
5.43
0.84
-3.43
-7.04
-9.91
-12.25
-14.51
-17.23
-20.88
-25.62
-31.20
-36.89
-41.58
-44.13
-43.58
-39.57
-32.39
-22.96
-12.45
-2.04
7.35
15.14
21.02
24.88
26.71
26.71
25.31
23.16
21.06
19.71
19.60
20.81
22.97
25.47
27.60
28.87
29.12
28.45
27.10
25.28
22.98
20.09
16.46
12.16
7.50
3.00
-0.84
-3.76
-5.83
-7.42
-9.09
-11.35
-14.56
-18.85
-24.00
-29.46
-34.28
-37.39
-37.78
-34.87
-28.72
-20.07
-10.16
-0.29
8.42
15.35
20.27
23.26
24.52
24.30
22.96
21.04
19.21
18.19
18.49
20.14
22.78
25.69
28.16
29.70
30.16
29.65
28.39
26.52
24.00
20.70
16.56
11.67
6.37
1.17
-3.43
-7.11
-9.87
-12.03
-14.11
-16.57
-19.78
-23.83
-28.58
-33.57
-38.16
-41.45
-42.51
-40.56
-35.32
-27.15
-16.98
-6.09
4.29
13.23
20.22
25.08
27.72
28.22
26.76
23.83
20.21
16.87
14.64
14.02
14.98
17.06
19.52
21.65
22.99
23.36
22.92
21.96
20.77
19.46
17.89
15.80
12.87
9.07
4.62
0.04
-4.06
-7.31
-9.69
-11.58
-13.60
-16.43
-20.52
-25.87
-32.04
-38.11
-42.85
-45.08
-43.99
-39.36
-31.68
-21.95
-11.41
-1.18
7.85
15.16
20.52
23.93
25.49
25.48
24.33
22.57
20.82
19.65
19.48
20.48
22.40
24.75
26.90
28.29
28.67
28.15
27.01
25.56
23.93
22.01
19.55
16.38
12.48
8.07
3.46
-1.03
-5.25
-9.11
-12.66
-15.99
-19.24
-22.65
-26.49
-31.01
-36.28
-42.04
-47.57
-51.81
-53.64
-52.17
-47.10
-38.82
-28.29
-16.81
-5.67
4.09
11.82
17.27
20.57
22.04
22.19
21.55
20.60
19.67
18.97
18.57
18.55
19.00
20.01
21.60
23.63
25.78
27.58
28.60
28.58
27.44
25.34
22.52
19.22
15.60
11.79
7.88
4.01
0.29
-3.17
-6.41
-9.53
-12.67
-15.97
-19.51
-23.35
-27.57
-32.25
-37.40
-42.77
-47.74
-51.33
-52.38
-49.99
-43.85
-34.39
-22.74
-10.39
1.22
10.96
18.30
23.14
25.80
26.73
26.47
25.53
24.41
23.52
23.21
23.65
24.81
26.47
28.22
29.67
30.53
30.67
30.17
29.18
27.85
26.19
24.18
21.81
19.15
16.31
13.45
10.69
7.98
5.18
2.08
-1.45
-5.37
-9.45
-13.34
-16.75
-19.53
-21.83
-24.01
-26.62
-30.18
-34.92
-40.61
-46.49
-51.40
-54.02
-53.31
-48.79
-40.73
-30.14
-18.35
-6.78
3.45
11.70
17.72
21.62
23.62
24.07
23.30
21.74
19.87
18.19
17.17
17.07
17.90
19.34
20.90
22.07
22.53
22.25
21.49
20.54
19.59
18.69
17.73
16.61
15.29
13.76
11.97
9.84
7.23
4.13
0.72
-2.69
-5.75
-8.28
-10.29
-12.00
-13.69
-15.66
-18.16
-21.43
-25.59
-30.49
-35.53
-39.65
-41.50
-40.01
-34.78
-26.31
-15.88
-5.04
4.86
12.98
18.93
22.71
24.41
24.25
22.61
20.05
17.26
14.93
13.51
13.19
13.87
15.29
17.08
18.82
20.13
20.70
20.42
19.40
17.86
15.97
13.81
11.36
8.59
5.65
2.75
0.11
-2.21
-4.36
-6.65
-9.26
-12.26
-15.39
-18.24
-20.47
-21.97
-22.98
-24.04
-25.84
-28.88
-33.24
-38.40
-43.27
-46.53
-46.95
-43.89
-37.43
-28.37
-17.94
-7.47
1.95
9.70
15.56
19.61
22.02
22.95
22.57
21.07
18.88
16.51
14.55
13.43
13.33
14.13
15.48
16.95
18.23
19.19
19.78
19.98
19.69
18.78
17.09
14.59
11.44
7.91
4.34
0.93
-2.25
-5.32
-8.42
-11.61
-14.81
-17.82
-20.42
-22.58
-24.50
-26.61
-29.42
-33.31
-38.30
-43.93
-49.16
-52.68
-53.27
-50.14
-43.28
-33.41
-21.81
-9.93
0.99
10.12
17.03
21.68
24.22
24.93
24.25
22.70
20.84
19.19
18.12
17.81
18.27
19.30
20.63
21.90
22.80
23.11
22.72
21.74
20.31
18.63
16.78
14.73
12.37
9.58
6.38
2.88
-0.70
-4.21
-7.56
-10.77
-13.86
-16.80
-19.52
-21.98
-24.28
-26.73
-29.85
-34.02
-39.33
-45.30
-50.86
-54.62
-55.29
-52.06
-44.97
-34.86
-23.14
-11.33
-0.74
7.89
14.32
18.65
21.11
21.89
21.20
19.34
16.83
14.36
12.66
12.23
13.20
15.29
17.88
20.26
21.88
22.47
22.08
20.94
19.35
17.49
15.43
13.10
10.41
7.33
3.94
0.41
-3.04
-6.27
-9.20
-11.85
-14.37
-16.93
-19.73
-22.96
-26.75
-31.15
-36.11
-41.32
-46.15
-49.67
-50.82
-48.70
-42.99
-34.11
-23.10
-11.40
-0.35
9.08
16.36
21.35
24.10
24.74
23.56
21.08
18.03
15.16
13.15
12.35
12.76
14.09
15.87
17.58
18.73
18.99
18.25
16.72
14.80
12.96
11.43
10.14
8.73
6.79
4.11
0.85
-2.57
-5.66
-8.16
-10.14
-11.89
-13.79
-16.13
-19.07
-22.67
-26.92
-31.69
-36.58
-40.85
-43.46
-43.40
-39.99
-33.24
-23.86
-13.10
-2.39
7.07
14.45
19.37
21.72
21.65
19.54
16.02
12.01
8.51
6.43
6.26
7.92
10.86
14.22
17.20
19.30
20.38
20.56
20.11
19.17
17.71
15.60
12.66
8.87
4.45
-0.20
-4.58
-8.30
-11.26
-13.60
-15.72
-18.06
-21.04
-24.92
-29.75
-35.30
-41.02
-46.04
-49.25
-49.61
-46.42
-39.65
-29.99
-18.65
-7.01
3.71
12.67
19.43
23.79
25.75
25.50
23.50
20.48
17.38
15.02
13.93
14.17
15.39
17.08
18.72
19.99
20.72
20.89
20.49
19.48
17.77
15.25
11.79
7.40
2.23
-3.37
-8.95
-14.03
-18.36
-22.00
-25.28
-28.70
-32.74
-37.62
-43.23
-49.11
-54.52
-58.54
-60.26
-58.89
-54.04
-45.81
-34.85
-22.29
-9.49
2.24
11.94
19.14
23.84
26.36
27.15
26.69
25.45
23.97
22.79
22.42
23.15
24.91
27.27
29.65
31.51
32.51
32.63
31.93
30.47
28.19
24.89
20.43
14.86
8.48
1.81
-4.52
-10.02
-14.49
-18.11
-21.38
-25.00
-29.56
-35.46
-42.58
-50.32
-57.57
-62.92
-65.00
-62.85
-56.25
-45.84
-32.98
-19.27
-6.14
5.51
15.34
23.37
29.63
34.03
36.38
36.74
35.59
33.93
32.89
33.29
35.24
38.07
40.66
42.04
41.78
40.19
37.98
35.75
33.68
31.38
28.23
23.76
18.01
11.45
4.84
-1.18
-6.30
-10.60
-14.44
-18.25
-22.46
-27.29
-32.93
-39.34
-46.22
-52.85
-58.08
-60.53
-59.01
-52.95
-42.74
-29.69
-15.56
-2.04
9.85
19.72
27.63
33.71
37.85
39.86
39.75
37.98
35.43
33.23
32.21
32.66
34.29
36.42
38.32
39.50
39.77
39.23
38.08
36.53
34.67
32.47
29.79
26.44
22.27
17.35
11.95
6.51
1.49
-2.82
-6.39
-9.53
-12.67
-16.38
-21.14
-27.16
-34.35
-42.13
-49.48
-55.07
-57.57
-55.90
-49.67
-39.33
-26.13
-11.76
2.05
14.00
23.39
30.12
34.44
36.73
37.33
36.58
34.93
32.99
31.49
31.05
31.96
34.02
36.60
38.89
40.17
40.07
38.63
36.17
33.16
29.99
26.82
23.57
20.02
16.02
11.60
6.98
2.55
-1.38
-4.68
-7.52
-10.25
-13.32
-17.15
-22.00
-27.90
-34.59
-41.42
-47.39
-51.29
-51.95
-48.57
-41.06
-30.13
-17.11
-3.63
8.84
19.22
26.99
32.12
34.82
35.39
34.24
31.84
28.92
26.36
25.01
25.36
27.40
30.45
33.48
35.52
36.00
34.96
32.88
30.32
27.66
24.93
21.90
18.38
14.31
9.89
5.38
1.06
-2.98
-6.78
-10.40
-13.95
-17.51
-21.31
-25.70
-31.07
-37.63
-45.06
-52.40
-58.16
-60.72
-58.84
-52.19
-41.49
-28.22
-14.16
-0.83
10.79
20.27
27.56
32.63
35.48
36.15
34.98
32.63
30.00
28.02
27.31
28.02
29.83
32.10
34.06
35.13
34.97
33.67
31.55
29.11
26.78
24.68
22.67
20.40
17.46
13.63
9.02
3.95
-1.14
-5.87
-10.07
-13.79
-17.22
-20.67
-24.44
-28.82
-34.09
-40.31
-47.18
-53.81
-58.87
-60.81
-58.43
-51.39
-40.41
-27.07
-13.23
-0.50
10.20
18.66
25.09
29.73
32.71
34.00
33.67
32.07
29.86
27.83
26.67
26.68
27.77
29.47
31.23
32.54
33.14
32.99
32.17
30.76
28.82
26.33
23.30
19.77
15.88
11.85
7.91
4.24
0.85
-2.37
-5.66
-9.16
-12.91
-16.71
-20.41
-23.99
-27.71
-31.97
-37.00
-42.53
-47.59
-50.72
-50.56
-46.34
-38.29
-27.54
-15.65
-4.15
5.88
13.95
19.92
23.87
25.93
26.28
25.18
23.10
20.67
18.56
17.33
17.24
18.28
20.12
22.31
24.37
25.91
26.69
26.59
25.58
23.73
21.20
18.25
15.18
12.22
9.55
7.15
4.92
2.70
0.32
-2.27
-5.05
-7.92
-10.79
-13.58
-16.40
-19.45
-23.08
-27.52
-32.75
-38.29
-43.22
-46.34
-46.57
-43.27
-36.52
-27.10
-16.27
-5.48
4.11
11.76
17.22
20.58
22.09
22.05
20.79
18.74
16.42
14.45
13.42
13.69
15.27
17.77
20.54
22.87
24.21
24.37
23.49
22.00
20.29
18.59
16.85
14.88
12.45
9.51
6.14
2.54
-1.07
-4.58
-7.91
-11.04
-13.94
-16.61
-19.15
-21.77
-24.74
-28.26
-32.35
-36.64
-40.38
-42.58
-42.28
-38.82
-32.12
-22.81
-12.05
-1.22
8.43
16.01
21.11
23.73
24.10
22.61
19.72
16.04
12.27
9.19
7.41
7.26
8.59
10.85
13.26
15.13
16.06
15.99
15.17
13.95
12.52
10.90
8.90
6.32
3.06
-0.77
-4.88
-8.87
-12.43
-15.41
-17.84
-19.94
-21.97
-24.21
-26.87
-30.11
-33.93
-38.09
-42.02
-44.80
-45.40
-43.00
-37.31
-28.78
-18.45
-7.69
2.25
10.49
16.58
20.42
22.12
21.95
20.33
17.81
14.99
12.44
10.61
9.74
9.81
10.58
11.67
12.60
13.01
12.72
11.85
10.69
9.54
8.44
7.18
5.35
2.67
-0.78
-4.61
-8.26
-11.31
-13.68
-15.65
-17.63
-20.00
-22.95
-26.49
-30.49
-34.70
-38.68
-41.77
-43.18
-42.15
-38.25
-31.66
-23.12
-13.81
-4.97
2.50
8.19
12.05
14.28
15.15
14.84
13.58
11.67
9.62
8.03
7.38
7.82
9.13
10.79
12.24
13.12
13.39
13.20
12.78
12.31
11.69
10.70
9.03
6.51
3.16
-0.79
-4.98
-9.02
-12.69
-15.94
-18.88
-21.75
-24.84
-28.34
-32.36
-36.73
-40.95
-44.21
-45.56
-44.18
-39.69
-32.40
-23.11
-12.97
-3.14
5.52
12.49
17.54
20.63
21.84
21.38
19.64
17.18
14.65
12.62
11.47
11.22
11.61
12.24
12.78
13.04
13.04
12.81
12.34
11.50
10.11
8.05
5.35
2.25
-0.94
-3.90
-6.45
-8.56
-10.38
-12.15
-14.19
-16.77
-20.05
-23.92
-27.94
-31.40
-33.38
-33.03
-29.90
-24.10
-16.29
-7.60
0.78
7.88
13.07
16.17
17.35
16.91
15.28
12.91
10.31
7.98
6.41
5.91
6.53
8.06
10.03
11.89
13.18
13.62
13.15
11.89
10.00
7.63
4.82
1.56
-2.06
-5.92
-9.77
-13.38
-16.68
-19.79
-23.02
-26.64
-30.83
-35.34
-39.54
-42.52
-43.26
-41.00
-35.54
-27.27
-17.14
-6.44
3.53
11.67
17.34
20.41
21.11
19.93
17.42
14.16
10.71
7.67
5.55
4.79
5.50
7.43
10.03
12.60
14.51
15.36
14.99
13.44
10.86
7.51
3.61
-0.49
-4.51
-8.29
-11.80
-15.23
-18.87
-23.04
-27.93
-33.53
-39.50
-45.18
-49.61
-51.64
-50.37
-45.36
-36.92
-26.12
-14.50
-3.61
5.37
11.87
15.93
17.97
18.46
17.88
16.60
14.97
13.41
12.29
11.88
12.23
13.18
14.39
15.57
16.41
16.76
16.49
15.48
13.64
10.91
7.35
3.26
-1.03
-5.17
-8.97
-12.43
-15.79
-19.42
-23.66
-28.64
-34.21
-39.75
-44.35
-46.91
-46.46
-42.48
-35.05
-24.91
-13.36
-1.85
8.29
16.20
21.56
24.51
25.49
25.00
23.52
21.51
19.47
17.90
17.23
17.66
19.02
20.82
22.46
23.41
23.44
22.59
21.11
19.17
16.79
13.90
10.38
6.23
1.69
-2.84
-6.96
-10.42
-13.28
-15.91
-18.85
-22.64
-27.53
-33.30
-39.23
-44.13
-46.73
-45.98
-41.40
-33.25
-22.44
-10.38
1.51
11.99
20.30
26.12
29.51
30.73
30.13
28.14
25.31
22.33
19.96
18.81
19.19
20.88
23.22
25.42
26.91
27.43
27.17
26.44
25.47
24.23
22.48
19.93
16.48
12.37
8.01
3.89
0.35
-2.52
-4.87
-7.08
-9.56
-12.75
-16.95
-22.23
-28.24
-34.28
-39.30
-42.14
-41.84
-37.97
-30.68
-20.80
-9.52
1.88
12.30
20.92
27.27
31.08
32.32
31.21
28.33
24.53
20.90
18.42
17.73
18.89
21.40
24.43
27.08
28.69
29.01
28.12
26.32
23.97
21.34
18.53
15.56
12.33
8.78
4.92
0.96
-2.80
-6.07
-8.73
-10.89
-12.89
-15.25
-18.48
-22.93
-28.59
-34.91
-40.83
-44.93
-45.88
-42.88
-35.98
-26.09
-14.69
-3.29
6.94
15.39
21.81
26.13
28.28
28.29
26.47
23.54
20.52
18.42
17.87
18.90
21.04
23.53
25.69
27.04
27.44
26.86
25.48
23.50
21.18
18.79
16.44
14.03
11.29
7.92
3.85
-0.72
-5.25
-9.23
-12.40
-14.86
-17.10
-19.65
-22.98
-27.23
-32.27
-37.62
-42.53
-46.06
-47.23
-45.24
-39.78
-31.23
-20.57
-9.13
1.82
11.33
18.94
24.51
28.06
29.67
29.49
27.90
25.52
23.16
21.57
21.23
22.17
24.03
26.18
28.07
29.28
29.65
29.20
28.04
26.25
23.93
21.10
17.75
13.88
9.57
4.95
0.33
-3.94
-7.58
-10.49
-12.78
-14.79
-16.91
-19.45
-22.59
-26.36
-30.73
-35.56
-40.48
-44.69
-47.15
-46.69
-42.56
-34.75
-24.10
-12.10
-0.38
9.76
17.64
23.10
26.38
27.75
27.46
25.90
23.59
21.21
19.45
18.78
19.27
20.60
22.26
23.69
24.50
24.53
23.80
22.49
20.83
19.02
17.22
15.38
13.28
10.64
7.29
3.34
-0.78
-4.46
-7.21
-8.90
-9.80
-10.50
-11.59
-13.47
-16.33
-20.14
-24.75
-29.86
-34.92
-39.02
-41.07
-40.07
-35.57
-27.93
-18.29
-8.15
1.11
8.63
14.17
17.84
19.87
20.35
19.38
17.22
14.47
11.99
10.66
11.09
13.25
16.55
20.04
22.77
24.18
24.26
23.39
22.12
20.82
19.53
18.01
15.91
13.01
9.34
5.19
0.93
-3.08
-6.59
-9.53
-11.90
-13.82
-15.48
-17.18
-19.30
-22.13
-25.84
-30.18
-34.50
-37.76
-38.80
-36.76
-31.34
-23.02
-12.92
-2.47
6.98
14.52
19.75
22.66
23.50
22.58
20.28
17.16
13.92
11.30
9.91
9.99
11.32
13.35
15.39
16.85
17.39
17.00
15.87
14.30
12.55
10.74
8.83
6.60
3.81
0.31
-3.84
-8.34
-12.74
-16.54
-19.43
-21.36
-22.61
-23.71
-25.25
-27.72
-31.30
-35.75
-40.42
-44.34
-46.48
-45.95
-42.31
-35.69
-26.73
-16.51
-6.22
3.05
10.55
15.89
19.07
20.32
20.03
18.73
16.99
15.37
14.33
14.17
14.91
16.35
18.11
19.69
20.69
20.87
20.24
19.05
17.59
16.04
14.26
11.97
8.89
4.99
0.67
-3.45
-6.77
-9.09
-10.66
-12.11
-14.08
-17.02
-20.99
-25.81
-31.12
-36.44
-41.08
-44.11
-44.54
-41.63
-35.22
-26.01
-15.32
-4.76
4.42
11.57
16.61
19.82
21.45
21.65
20.51
18.29
15.49
12.81
10.89
10.05
10.20
10.93
11.77
12.37
12.72
12.93
13.15
13.38
13.39
12.87
11.48
9.11
5.82
1.88
-2.32
-6.37
-9.95
-12.89
-15.16
-17.02
-18.90
-21.37
-24.85
-29.38
-34.51
-39.27
-42.43
-42.91
-40.16
-34.30
-26.12
-16.86
-7.75
0.28
6.70
11.37
14.39
15.91
16.11
15.25
13.74
12.13
10.98
10.70
11.43
12.98
14.91
16.77
18.24
19.16
19.53
19.37
18.66
17.26
15.04
11.92
7.95
3.37
-1.46
-6.09
-10.05
-13.01
-14.88
-15.94
-16.76
-18.04
-20.41
-24.10
-28.81
-33.76
-37.84
-39.97
-39.35
-35.72
-29.34
-20.97
-11.67
-2.58
5.31
11.33
15.19
16.95
16.84
15.28
12.79
9.97
7.50
5.99
5.73
6.69
8.48
10.55
12.47
14.02
15.17
15.94
16.22
15.76
14.29
11.72
8.21
4.18
0.13
-3.54
-6.67
-9.36
-11.85
-14.47
-17.51
-21.18
-25.60
-30.65
-35.88
-40.49
-43.39
-43.51
-40.23
-33.59
-24.45
-14.21
-4.33
4.09
10.51
14.91
17.47
18.42
17.95
16.42
14.29
12.22
10.85
10.56
11.33
12.80
14.43
15.76
16.61
16.97
16.90
16.39
15.23
13.14
9.93
5.67
0.75
-4.22
-8.63
-12.09
-14.65
-16.71
-18.94
-22.03
-26.46
-32.27
-38.85
-45.07
-49.39
-50.41
-47.33
-40.29
-30.36
-19.14
-8.26
1.18
8.72
14.39
18.42
20.96
22.15
22.14
21.28
20.07
19.05
18.62
18.87
19.62
20.59
21.53
22.34
23.00
23.44
23.42
22.54
20.37
16.67
11.56
5.51
-0.79
-6.67
-11.71
-15.84
-19.36
-22.68
-26.24
-30.42
-35.35
-40.86
-46.36
-50.84
-53.07
-51.98
-47.11
-38.77
-28.05
-16.41
-5.15
4.89
13.33
20.09
25.11
28.20
29.26
28.48
26.48
24.26
22.75
22.47
23.35
24.75
25.97
26.52
26.35
25.74
25.04
24.34
23.43
21.89
19.29
15.51
10.78
5.54
0.29
-4.58
-8.86
-12.63
-16.09
-19.62
-23.62
-28.42
-34.11
-40.37
-46.40
-51.08
-53.20
-51.80
-46.56
-37.86
-26.67
-14.35
-2.20
8.77
17.94
25.03
29.94
32.71
33.48
32.61
30.81
28.92
27.76
27.81
29.04
30.96
32.88
34.21
34.64
34.20
33.15
31.71
29.98
27.89
25.31
22.09
18.17
13.61
8.55
3.28
-1.82
-6.38
-10.18
-13.30
-16.15
-19.37
-23.56
-29.10
-35.91
-43.44
-50.68
-56.36
-59.09
-57.75
-51.78
-41.47
-27.96
-13.11
1.11
13.19
22.36
28.63
32.45
34.33
34.63
33.66
31.81
29.73
28.16
27.75
28.74
30.85
33.36
35.43
36.48
36.33
35.23
33.61
31.85
30.05
27.96
25.24
21.60
17.12
12.20
7.45
3.43
0.37
-1.92
-3.91
-6.19
-9.22
-13.29
-18.40
-24.33
-30.63
-36.57
-41.25
-43.65
-42.87
-38.44
-30.53
-19.96
-8.04
3.76
14.17
22.32
27.87
30.86
31.66
30.78
28.85
26.58
24.60
23.44
23.43
24.57
26.55
28.82
30.73
31.70
31.38
29.76
27.12
23.88
20.45
16.98
13.40
9.51
5.17
0.51
-4.09
-8.21
-11.60
-14.34
-16.81
-19.53
-22.92
-27.16
-32.12
-37.41
-42.37
-46.12
-47.74
-46.35
-41.53
-33.50
-23.11
-11.65
-0.45
9.51
17.66
23.82
27.93
30.04
30.23
28.83
26.46
23.97
22.25
21.90
23.03
25.20
27.62
29.46
30.13
29.47
27.74
25.47
23.10
20.87
18.63
15.93
12.41
7.91
2.68
-2.77
-7.86
-12.24
-15.87
-19.01
-22.13
-25.64
-29.85
-34.86
-40.51
-46.30
-51.38
-54.62
-54.90
-51.44
-44.16
-33.86
-21.94
-10.02
0.58
9.17
15.65
20.34
23.57
25.57
26.39
26.20
25.34
24.41
24.08
24.82
26.67
29.20
31.74
33.56
34.24
33.80
32.57
31.02
29.37
27.58
25.23
21.91
17.33
11.53
4.97
-1.72
-7.89
-13.13
-17.36
-20.87
-24.09
-27.48
-31.30
-35.64
-40.28
-44.77
-48.47
-50.53
-50.12
-46.61
-39.84
-30.25
-18.88
-7.10
3.79
12.88
19.81
24.61
27.50
28.71
28.48
27.14
25.23
23.46
22.51
22.76
24.08
25.92
27.51
28.21
27.80
26.52
24.86
23.29
22.02
20.91
19.52
17.43
14.38
10.40
5.84
1.16
-3.18
-6.90
-9.94
-12.45
-14.71
-17.13
-20.09
-23.92
-28.76
-34.37
-40.08
-44.76
-47.08
-45.97
-40.96
-32.45
-21.56
-9.83
1.26
10.62
17.73
22.48
25.06
25.73
24.80
22.74
20.14
17.71
16.09
15.67
16.47
18.09
19.99
21.59
22.55
22.74
22.28
21.31
19.90
17.99
15.45
12.20
8.32
4.14
0.10
-3.38
-6.09
-8.03
-9.48
-10.82
-12.46
-14.79
-18.10
-22.51
-27.86
-33.64
-38.88
-42.36
-42.96
-39.97
-33.40
-24.06
-13.27
-2.57
6.76
13.91
18.67
21.22
21.95
21.24
19.47
17.14
14.84
13.22
12.82
13.80
15.86
18.29
20.22
21.00
20.43
18.81
16.71
14.69
12.98
11.42
9.58
7.00
3.50
-0.69
-5.06
-9.02
-12.21
-14.66
-16.75
-18.96
-21.73
-25.27
-29.53
-34.32
-39.20
-43.49
-46.27
-46.53
-43.47
-36.82
-27.11
-15.49
-3.57
7.19
15.80
21.88
25.53
27.08
26.85
25.10
22.19
18.67
15.31
12.93
12.09
12.82
14.58
16.45
17.60
17.59
16.47
14.69
12.71
10.73
8.67
6.29
3.36
-0.15
-4.03
-8.00
-11.74
-15.02
-17.83
-20.26
-22.56
-25.09
-28.18
-31.92
-36.14
-40.20
-43.22
-44.18
-42.32
-37.37
-29.65
-20.05
-9.71
0.26
9.03
16.17
21.56
25.21
27.13
27.33
25.92
23.31
20.12
17.09
14.85
13.69
13.52
13.98
14.66
15.23
15.52
15.45
14.95
13.91
12.20
9.75
6.62
3.01
-0.75
-4.32
-7.45
-10.04
-12.27
-14.46
-17.05
-20.40
-24.70
-29.82
-35.31
-40.37
-43.98
-45.11
-43.06
-37.66
-29.37
-19.22
-8.44
1.80
10.66
17.67
22.68
25.69
26.79
26.18
24.23
21.51
18.71
16.53
15.40
15.40
16.23
17.34
18.16
18.32
17.74
16.59
15.16
13.60
11.82
9.61
6.68
2.98
-1.25
-5.56
-9.42
-12.49
-14.71
-16.35
-17.90
-19.95
-22.95
-26.98
-31.67
-36.13
-39.16
-39.60
-36.77
-30.74
-22.34
-12.87
-3.64
4.35
10.59
14.97
17.54
18.39
17.67
15.70
13.06
10.47
8.65
8.04
8.72
10.33
12.33
14.13
15.32
15.66
15.14
13.84
11.86
9.30
6.24
2.80
-0.85
-4.50
-7.96
-11.08
-13.87
-16.53
-19.43
-22.90
-27.10
-31.77
-36.22
-39.38
-40.14
-37.72
-31.94
-23.38
-13.20
-2.77
6.65
14.23
19.60
22.76
23.92
23.29
21.16
17.87
14.01
10.27
7.35
5.79
5.72
6.85
8.61
10.32
11.40
11.53
10.60
8.74
6.17
3.09
-0.27
-3.78
-7.33
-10.82
-14.24
-17.68
-21.37
-25.64
-30.79
-36.82
-43.19
-48.84
-52.31
-52.26
-47.94
-39.52
-28.11
-15.41
-3.18
7.26
15.24
20.72
23.99
25.45
25.46
24.36
22.54
20.46
18.61
17.42
17.11
17.61
18.63
19.75
20.60
20.90
20.51
19.39
17.50
14.85
11.43
7.34
2.77
-1.95
-6.55
-10.87
-14.94
-18.97
-23.25
-28.04
-33.31
-38.76
-43.62
-46.90
-47.51
-44.63
-38.07
-28.39
-16.83
-4.95
5.77
14.40
20.59
24.52
26.53
26.95
26.02
24.00
21.36
18.73
16.82
16.14
16.80
18.46
20.50
22.29
23.31
23.37
22.45
20.69
18.28
15.35
12.03
8.47
4.79
1.09
-2.55
-6.09
-9.57
-13.14
-17.10
-21.78
-27.37
-33.69
-39.99
-44.95
-47.14
-45.36
-39.23
-29.40
-17.26
-4.53
7.28
17.18
24.75
29.88
32.64
33.11
31.58
28.67
25.24
22.31
20.63
20.44
21.42
22.88
24.12
24.69
24.56
23.88
22.79
21.23
18.96
15.76
11.65
7.00
2.41
-1.56
-4.60
-6.77
-8.40
-9.89
-11.60
-13.75
-16.51
-20.00
-24.12
-28.46
-32.16
-34.12
-33.27
-29.03
-21.62
-11.95
-1.43
8.53
16.84
22.92
26.59
28.01
27.50
25.51
22.62
19.49
16.76
14.93
14.22
14.54
15.59
16.95
18.19
19.01
19.20
18.65
17.34
15.31
12.70
9.65
6.33
2.84
-0.67
-4.09
-7.27
-10.09
-12.51
-14.68
-16.95
-19.80
-23.52
-28.07
-32.84
-36.74
-38.58
-37.34
-32.68
-24.98
-15.20
-4.58
5.71
14.76
21.97
26.98
29.58
29.75
27.84
24.55
20.82
17.61
15.59
14.96
15.40
16.36
17.22
17.61
17.46
16.89
16.12
15.32
14.49
13.48
12.03
9.89
6.94
3.30
-0.71
-4.62
-8.04
-10.77
-12.92
-14.85
-17.09
-20.15
-24.29
-29.41
-34.94
-39.92
-43.19
-43.68
-40.78
-34.50
-25.51
-14.92
-4.00
6.16
14.78
21.41
25.87
28.13
28.37
26.95
24.45
21.64
19.33
18.10
18.15
19.20
20.67
21.91
22.48
22.30
21.52
20.39
19.04
17.45
15.48
13.04
10.14
6.89
3.47
0.01
-3.33
-6.44
-9.23
-11.66
-13.85
-16.01
-18.45
-21.46
-25.16
-29.44
-33.86
-37.69
-40.06
-40.10
-37.25
-31.45
-23.20
-13.44
-3.34
6.00
13.85
19.79
23.76
25.88
26.32
25.33
23.24
20.59
18.01
16.18
15.48
15.94
17.17
18.52
19.38
19.40
18.59
17.14
15.33
13.35
11.23
8.94
6.45
3.78
1.05
-1.63
-4.10
-6.26
-8.10
-9.66
-11.11
-12.69
-14.59
-17.03
-20.08
-23.71
-27.69
-31.50
-34.36
-35.34
-33.63
-28.90
-21.43
-12.18
-2.41
6.64
14.10
19.51
22.83
24.19
23.80
21.97
19.11
15.76
12.54
10.05
8.68
8.56
9.47
10.95
12.42
13.43
13.72
13.37
12.68
11.92
11.26
10.59
9.63
8.11
5.94
3.29
0.48
-2.13
-4.32
-6.06
-7.48
-8.78
-10.14
-11.75
-13.77
-16.39
-19.70
-23.58
-27.57
-30.81
-32.35
-31.29
-27.23
-20.42
-11.70
-2.31
6.52
13.86
19.14
22.16
22.96
21.77
19.05
15.43
11.75
8.85
7.35
7.47
8.94
11.17
13.42
15.07
15.80
15.60
14.64
13.19
11.49
9.62
7.55
5.13
2.23
-1.14
-4.82
-8.47
-11.68
-14.17
-15.89
-17.14
-18.44
-20.31
-23.10
-26.76
-30.93
-34.91
-37.89
-39.12
-38.02
-34.30
-28.09
-19.90
-10.62
-1.29
7.04
13.64
18.12
20.44
20.84
19.71
17.48
14.61
11.64
9.04
7.23
6.41
6.53
7.36
8.54
9.68
10.47
10.69
10.20
9.03
7.30
5.25
3.09
0.89
-1.42
-3.99
-6.87
-9.88
-12.71
-14.95
-16.42
-17.27
-17.96
-19.10
-21.18
-24.42
-28.61
-33.06
-36.81
-38.81
-38.19
-34.52
-28.01
-19.44
-9.99
-0.93
6.76
12.48
16.03
17.54
17.30
15.74
13.38
10.78
8.44
6.80
6.09
6.36
7.41
8.90
10.43
11.67
12.47
12.84
12.88
12.62
11.96
10.65
8.43
5.22
1.29
-2.82
-6.48
-9.23
-10.97
-11.97
-12.75
-13.85
-15.73
-18.62
-22.51
-27.00
-31.40
-34.74
-36.01
-34.43
-29.80
-22.61
-13.92
-5.11
2.57
8.35
11.98
13.66
13.83
12.96
11.47
9.67
7.87
6.40
5.57
5.58
6.45
7.89
9.49
10.81
11.60
11.87
11.79
11.52
11.13
10.48
9.28
7.33
4.58
1.25
-2.22
-5.33
-7.71
-9.29
-10.33
-11.39
-13.12
-15.99
-20.09
-25.03
-30.05
-34.14
-36.32
-35.89
-32.55
-26.48
-18.35
-9.21
-0.23
7.49
13.23
16.67
17.97
17.51
15.80
13.35
10.59
7.97
5.89
4.72
4.61
5.47
6.91
8.41
9.48
9.85
9.52
8.70
7.64
6.46
5.15
3.57
1.63
-0.61
-2.97
-5.27
-7.44
-9.60
-12.05
-15.13
-19.02
-23.61
-28.40
-32.53
-34.98
-34.82
-31.61
-25.57
-17.54
-8.76
-0.44
6.52
11.72
15.12
16.88
17.18
16.23
14.31
11.87
9.53
7.89
7.34
7.89
9.19
10.65
11.71
11.98
11.30
9.75
7.48
4.61
1.27
-2.45
-6.38
-10.32
-14.02
-17.29
-20.09
-22.58
-25.08
-27.92
-31.34
-35.23
-39.11
-42.08
-43.08
-41.18
-36.01
-27.89
-17.83
-7.27
2.39
10.10
15.40
18.39
19.51
19.34
18.34
16.84
15.01
13.07
11.35
10.23
9.98
10.59
11.73
12.82
13.34
13.03
11.96
10.39
8.55
6.43
3.83
0.51
-3.52
-8.01
-12.49
-16.58
-20.20
-23.61
-27.30
-31.66
-36.70
-41.93
-46.32
-48.64
-47.82
-43.31
-35.35
-24.84
-13.13
-1.67
8.45
16.53
22.35
26.01
27.73
27.84
26.72
24.81
22.66
20.82
19.75
19.65
20.40
21.57
22.62
23.13
22.88
21.90
20.33
18.32
15.83
12.75
8.97
4.45
-0.58
-5.85
-11.00
-15.91
-20.61
-25.44
-30.71
-36.54
-42.66
-48.22
-52.04
-52.89
-49.99
-43.28
-33.49
-21.89
-9.92
1.23
10.79
18.47
24.19
28.00
29.92
30.08
28.79
26.64
24.42
22.88
22.55
23.52
25.42
27.59
29.38
30.33
30.31
29.41
27.82
25.68
22.93
19.53
15.51
11.02
6.40
2.02
-1.87
-5.26
-8.38
-11.66
-15.53
-20.25
-25.76
-31.51
-36.56
-39.77
-40.11
-37.04
-30.65
-21.64
-11.13
-0.31
9.74
18.29
24.77
28.89
30.57
30.03
27.81
24.75
21.73
19.51
18.50
18.73
19.97
21.79
23.82
25.69
27.13
27.83
27.54
26.03
23.22
19.27
14.56
9.60
4.91
0.85
-2.53
-5.40
-8.11
-11.05
-14.49
-18.62
-23.44
-28.81
-34.30
-39.20
-42.50
-43.14
-40.35
-33.94
-24.48
-13.12
-1.29
9.71
18.94
25.93
30.51
32.73
32.71
30.78
27.51
23.70
20.29
18.06
17.44
18.38
20.33
22.52
24.22
25.05
24.98
24.27
23.18
21.82
20.02
17.56
14.29
10.34
6.02
1.74
-2.25
-5.91
-9.41
-13.00
-16.96
-21.50
-26.75
-32.66
-38.88
-44.65
-48.86
-50.32
-48.12
-42.02
-32.59
-21.02
-8.84
2.59
12.27
19.76
24.96
27.99
29.05
28.38
26.41
23.76
21.27
19.72
19.58
20.89
23.16
25.66
27.69
28.84
29.10
28.72
27.95
26.89
25.38
23.16
20.00
15.94
11.28
6.53
2.24
-1.28
-4.06
-6.49
-9.16
-12.62
-17.25
-23.09
-29.72
-36.34
-41.77
-44.77
-44.36
-40.13
-32.41
-22.15
-10.72
0.50
10.45
18.49
24.34
27.96
29.49
29.21
27.63
25.45
23.39
22.10
21.93
22.81
24.34
25.93
27.01
27.32
26.84
25.78
24.34
22.61
20.44
17.67
14.20
10.13
5.80
1.68
-1.87
-4.67
-6.79
-8.53
-10.27
-12.37
-15.19
-18.94
-23.61
-28.90
-34.10
-38.23
-40.18
-39.13
-34.73
-27.34
-17.88
-7.60
2.30
10.89
17.60
22.22
24.74
25.28
24.09
21.60
18.47
15.48
13.39
12.72
13.57
15.59
18.13
20.44
22.01
22.62
22.33
21.44
20.15
18.50
16.37
13.62
10.18
6.27
2.21
-1.61
-4.95
-7.73
-10.09
-12.21
-14.23
-16.31
-18.59
-21.21
-24.25
-27.51
-30.44
-32.18
-31.78
-28.58
-22.50
-14.14
-4.54
5.07
13.59
20.26
24.59
26.39
25.71
22.89
18.64
13.93
9.82
7.15
6.30
7.14
9.14
11.57
13.80
15.39
16.16
16.10
15.41
14.30
12.92
11.29
9.28
6.70
3.47
-0.25
-4.08
-7.64
-10.71
-13.46
-16.32
-19.80
-24.14
-29.19
-34.35
-38.76
-41.54
-41.96
-39.57
-34.31
-26.50
-16.84
-6.33
3.91
12.87
19.75
24.13
25.95
25.50
23.33
20.23
17.00
14.42
13.00
12.85
13.71
14.99
16.08
16.58
16.34
15.55
14.47
13.24
11.75
9.67
6.63
2.52
-2.36
-7.45
-12.10
-15.89
-18.77
-21.08
-23.23
-25.66
-28.64
-32.27
-36.48
-40.94
-45.02
-47.74
-47.99
-44.88
-38.10
-28.24
-16.58
-4.71
5.90
14.36
20.34
23.99
25.68
25.73
24.42
22.07
19.13
16.18
13.78
12.35
12.00
12.56
13.63
14.74
15.51
15.63
14.95
13.48
11.25
8.38
5.00
1.30
-2.52
-6.23
-9.58
-12.38
-14.58
-16.40
-18.30
-20.92
-24.73
-29.79
-35.53
-40.78
-44.08
-44.15
-40.36
-32.98
-23.07
-12.09
-1.46
7.84
15.33
20.87
24.45
26.02
25.65
23.61
20.51
17.21
14.49
12.86
12.33
12.55
13.06
13.48
13.68
13.67
13.47
12.97
11.97
10.23
7.62
4.20
0.24
-3.91
-7.79
-11.07
-13.61
-15.55
-17.28
-19.29
-22.01
-25.58
-29.78
-34.02
-37.45
-39.16
-38.35
-34.57
-27.90
-18.93
-8.73
1.38
10.26
17.06
21.46
23.57
23.74
22.43
20.12
17.34
14.61
12.50
11.36
11.27
12.08
13.38
14.76
15.85
16.43
16.35
15.57
14.03
11.71
8.71
5.19
1.41
-2.32
-5.75
-8.77
-11.43
-14.00
-16.85
-20.29
-24.40
-28.89
-33.08
-36.03
-36.77
-34.59
-29.29
-21.27
-11.49
-1.18
8.39
16.28
21.90
25.08
25.94
24.81
22.17
18.59
14.71
11.20
8.61
7.30
7.36
8.63
10.71
13.04
15.05
16.18
16.06
14.60
11.98
8.57
4.77
0.90
-2.88
-6.53
-10.07
-13.59
-17.18
-21.04
-25.35
-30.11
-35.00
-39.28
-41.90
-41.80
-38.32
-31.46
-21.98
-11.17
-0.43
9.02
16.48
21.64
24.53
25.29
24.11
21.33
17.55
13.65
10.58
9.04
9.17
10.56
12.41
14.02
14.98
15.29
15.09
14.42
13.17
11.14
8.25
4.67
0.73
-3.19
-6.83
-10.16
-13.29
-16.47
-19.96
-24.04
-28.91
-34.43
-40.05
-44.77
-47.32
-46.64
-42.17
-34.23
-23.85
-12.46
-1.51
7.93
15.33
20.59
23.90
25.52
25.69
24.70
22.93
20.85
19.01
17.83
17.51
17.97
18.92
19.96
20.78
21.14
20.90
19.96
18.19
15.52
11.91
7.50
2.60
-2.33
-6.79
-10.47
-13.39
-15.92
-18.71
-22.31
-27.00
-32.53
-38.13
-42.71
-45.11
-44.45
-40.40
-33.20
-23.65
-12.92
-2.25
7.28
14.90
20.25
23.30
24.26
23.48
21.46
18.81
16.19
14.17
13.10
13.03
13.75
14.91
16.15
17.20
17.92
18.24
18.11
17.48
16.30
14.51
12.08
9.11
5.71
2.09
-1.57
-5.10
-8.46
-11.75
-15.21
-19.11
-23.62
-28.61
-33.52
-37.43
-39.25
-38.08
-33.54
-25.98
-16.32
-5.84
4.22
12.93
19.75
24.48
27.07
27.61
26.37
23.84
20.76
18.00
16.27
15.97
16.99
18.81
20.74
22.21
22.94
22.94
22.30
21.07
19.12
16.29
12.57
8.13
3.36
-1.35
-5.73
-9.76
-13.56
-17.29
-21.14
-25.25
-29.73
-34.53
-39.26
-43.10
-44.93
-43.63
-38.65
-30.22
-19.42
-7.84
2.92
11.65
17.80
21.38
22.69
22.22
20.43
17.82
14.98
12.55
11.12
11.02
12.25
14.42
16.90
19.05
20.37
20.67
19.93
18.31
15.99
13.18
10.02
6.60
3.00
-0.73
-4.54
-8.37
-12.15
-15.96
-19.98
-24.52
-29.74
-35.41
-40.76
-44.52
-45.38
-42.48
-35.72
-25.90
-14.37
-2.68
7.92
16.57
22.89
26.75
28.23
27.56
25.21
21.91
18.54
15.94
14.64
14.70
15.79
17.29
18.67
19.59
19.92
19.69
18.86
17.34
15.00
11.85
8.09
4.04
0.03
-3.77
-7.36
-10.84
-14.30
-17.85
-21.52
-25.46
-29.73
-34.14
-38.13
-40.74
-40.85
-37.66
-30.99
-21.54
-10.64
0.19
9.65
16.98
21.94
24.66
25.47
24.76
22.98
20.69
18.49
16.92
16.34
16.76
17.91
19.27
20.38
20.90
20.75
20.00
18.77
17.08
14.87
12.10
8.77
5.04
1.22
-2.42
-5.66
-8.48
-11.07
-13.75
-16.88
-20.75
-25.43
-30.77
-36.23
-41.01
-44.09
-44.49
-41.59
-35.29
-26.14
-15.25
-3.96
6.39
14.81
20.77
24.19
25.32
24.65
22.85
20.65
18.76
17.80
18.09
19.52
21.66
23.83
25.42
26.04
25.64
24.44
22.75
20.75
18.46
15.79
12.61
8.92
4.87
0.74
-3.17
-6.69
-9.79
-12.66
-15.62
-19.06
-23.22
-28.09
-33.24
-37.81
-40.73
-40.98
-37.98
-31.72
-22.93
-12.74
-2.42
6.90
14.47
19.86
22.98
23.91
23.04
20.96
18.45
16.37
15.35
15.68
17.23
19.49
21.79
23.54
24.34
24.10
22.99
21.33
19.44
17.53
15.62
13.56
11.19
8.39
5.27
2.06
-0.95
-3.58
-5.89
-8.21
-11.05
-14.79
-19.51
-24.80
-29.76
-33.30
-34.41
-32.54
-27.74
-20.60
-11.99
-2.91
5.75
13.27
19.11
22.92
24.53
24.12
22.10
19.16
16.15
13.84
12.80
13.22
14.87
17.19
19.45
21.02
21.59
21.16
19.90
18.06
15.80
13.12
10.05
6.60
2.96
-0.63
-3.89
-6.64
-8.91
-10.93
-13.07
-15.76
-19.24
-23.48
-27.99
-31.92
-34.27
-34.09
-30.85
-24.64
-16.11
-6.41
3.17
11.51
17.85
21.90
23.76
23.74
22.28
19.85
16.97
14.19
12.05
10.94
10.96
11.89
13.24
14.46
15.15
15.17
14.67
13.88
12.95
11.80
10.16
7.75
4.45
0.45
-3.86
-7.97
-11.56
-14.52
-17.01
-19.31
-21.75
-24.61
-27.91
-31.51
-34.89
-37.31
-37.94
-36.13
-31.62
-24.70
-16.08
-6.72
2.44
10.63
17.28
22.07
24.83
25.65
24.87
23.10
21.05
19.35
18.39
18.24
18.68
19.34
19.89
20.14
20.09
19.84
19.36
18.56
17.21
15.05
11.98
8.13
3.86
-0.41
-4.29
-7.60
-10.33
-12.67
-14.79
-16.93
-19.25
-21.98
-25.23
-28.94
-32.74
-35.87
-37.43
-36.56
-32.85
-26.47
-18.22
-9.24
-0.69
6.60
12.24
16.15
18.42
19.18
18.61
16.96
14.69
12.42
10.74
10.08
10.49
11.72
13.31
14.81
15.90
16.44
16.45
16.02
15.20
13.98
12.32
10.23
7.78
5.14
2.49
0.02
-2.21
-4.28
-6.36
-8.74
-11.71
-15.49
-20.11
-25.27
-30.33
-34.40
-36.51
-35.97
-32.50
-26.39
-18.41
-9.57
-0.91
6.66
12.51
16.30
17.99
17.81
16.26
13.98
11.62
9.72
8.60
8.34
8.81
9.72
10.77
11.68
12.29
12.53
12.41
11.95
11.14
9.91
8.15
5.86
3.17
0.37
-2.17
-4.16
-5.51
-6.42
-7.28
-8.57
-10.75
-14.10
-18.55
-23.56
-28.24
-31.48
-32.27
-30.08
-25.04
-17.90
-9.73
-1.71
5.29
10.79
14.57
16.67
17.18
16.29
14.32
11.77
9.24
7.31
6.36
6.41
7.18
8.19
8.93
9.16
8.86
8.16
7.18
5.90
4.15
1.77
-1.25
-4.76
-8.46
-12.00
-15.13
-17.72
-19.79
-21.60
-23.47
-25.80
-28.85
-32.47
-36.06
-38.66
-39.22
-36.97
-31.73
-23.97
-14.68
-5.05
3.83
11.15
16.48
19.71
21.00
20.68
19.20
17.09
14.90
13.16
12.31
12.54
13.78
15.65
17.59
19.02
19.56
19.09
17.76
15.79
13.35
10.40
6.77
2.42
-2.42
-7.24
-11.35
-14.27
-15.97
-16.96
-18.10
-20.22
-23.73
-28.41
-33.44
-37.65
-39.88
-39.35
-35.79
-29.49
-21.22
-12.01
-2.97
4.93
10.99
14.82
16.42
16.07
14.27
11.66
8.86
6.38
4.61
3.70
3.61
4.13
4.98
5.86
6.60
7.10
7.35
7.36
7.07
6.41
5.27
3.69
1.78
-0.27
-2.33
-4.42
-6.69
-9.39
-12.69
-16.69
-21.21
-25.94
-30.31
-33.63
-35.20
-34.44
-31.08
-25.24
-17.52
-8.84
-0.25
7.26
13.01
16.67
18.25
18.06
16.53
14.19
11.59
9.27
7.69
7.13
7.64
9.00
10.77
12.46
13.68
14.21
13.95
12.88
11.07
8.58
5.65
2.61
-0.17
-2.49
-4.35
-5.99
-7.79
-10.07
-13.07
-16.84
-21.30
-26.09
-30.58
-33.87
-34.99
-33.15
-28.16
-20.56
-11.53
-2.49
5.35
11.29
15.23
17.45
18.29
18.01
16.76
14.68
12.11
9.55
7.61
6.76
7.13
8.41
10.06
11.46
12.18
12.10
11.32
10.00
8.21
5.90
2.97
-0.56
-4.45
-8.35
-11.90
-14.94
-17.59
-20.25
-23.37
-27.23
-31.74
-36.29
-39.97
-41.72
-40.78
-36.88
-30.33
-21.89
-12.54
-3.16
5.48
12.77
18.26
21.60
22.74
21.98
19.91
17.38
15.13
13.70
13.29
13.78
14.88
16.25
17.59
18.68
19.33
19.41
18.82
17.47
15.29
12.31
8.59
4.36
-0.07
-4.33
-8.10
-11.26
-13.96
-16.58
-19.62
-23.46
-28.15
-33.30
-38.11
-41.59
-42.78
-41.04
-36.18
-28.58
-19.03
-8.54
1.81
11.10
18.63
24.04
27.17
28.08
27.05
24.62
21.50
18.47
16.21
15.07
15.04
15.75
16.74
17.57
18.06
18.12
17.74
16.89
15.48
13.41
10.67
7.32
3.51
-0.56
-4.70
-8.67
-12.23
-15.25
-17.76
-20.05
-22.57
-25.78
-29.74
-33.99
-37.51
-39.02
-37.53
-32.64
-24.82
-15.21
-5.13
4.24
12.22
18.52
23.07
25.81
26.71
25.90
23.83
21.25
19.05
17.87
17.94
18.94
20.26
21.32
21.77
21.59
20.93
19.98
18.76
17.14
14.95
12.09
8.70
5.05
1.52
-1.59
-4.13
-6.12
-7.80
-9.53
-11.68
-14.60
-18.46
-23.11
-28.05
-32.45
-35.29
-35.63
-32.80
-26.74
-17.99
-7.60
3.09
12.78
20.44
25.47
27.75
27.48
25.17
21.57
17.53
14.00
11.79
11.32
12.52
14.74
17.09
18.73
19.20
18.53
17.10
15.39
13.68
11.99
10.13
7.86
5.05
1.80
-1.65
-5.05
-8.24
-11.16
-13.90
-16.66
-19.68
-23.19
-27.28
-31.81
-36.23
-39.63
-40.96
-39.31
-34.29
-26.26
-16.24
-5.64
4.17
12.24
18.10
21.69
23.22
22.96
21.27
18.67
15.81
13.45
12.24
12.45
13.87
15.88
17.77
18.98
19.33
18.99
18.26
17.37
16.31
14.88
12.79
9.88
6.24
2.20
-1.79
-5.42
-8.52
-11.19
-13.74
-16.53
-19.92
-24.08
-28.88
-33.79
-37.96
-40.35
-40.02
-36.43
-29.76
-20.81
-10.86
-1.20
7.16
13.69
18.30
21.08
22.19
21.82
20.32
18.24
16.34
15.31
15.57
16.98
19.01
20.89
21.97
21.96
20.94
19.22
17.12
14.80
12.26
9.41
6.21
2.79
-0.62
-3.76
-6.42
-8.54
-10.27
-11.97
-14.14
-17.29
-21.67
-27.03
-32.50
-36.79
-38.56
-36.88
-31.64
-23.55
-13.92
-4.19
4.45
11.30
16.07
18.84
19.81
19.32
17.81
15.79
13.81
12.40
11.91
12.42
13.80
15.66
17.54
18.99
19.74
19.66
18.76
17.13
14.85
12.00
8.67
5.05
1.41
-1.97
-4.83
-7.08
-8.84
-10.43
-12.33
-14.96
-18.45
-22.56
-26.54
-29.32
-29.81
-27.26
-21.60
-13.45
-3.99
5.36
13.32
19.00
22.06
22.60
21.12
18.33
15.05
11.96
9.56
8.10
7.59
7.92
8.91
10.39
12.07
13.66
14.74
14.93
13.95
11.77
8.59
4.71
0.53
-3.68
-7.70
-11.44
-14.90
-18.23
-21.66
-25.40
-29.53
-33.78
-37.53
-39.87
-39.90
-37.04
-31.25
-23.13
-13.67
-4.09
4.62
11.77
17.01
20.31
21.77
21.63
20.19
17.85
15.07
12.37
10.25
9.10
9.08
10.06
11.63
13.21
14.27
14.41
13.51
11.61
8.90
5.61
1.98
-1.79
-5.55
-9.18
-12.71
-16.33
-20.31
-24.89
-30.12
-35.67
-40.79
-44.40
-45.34
-42.74
-36.34
-26.73
-15.20
-3.37
7.27
15.74
21.69
25.28
26.88
26.91
25.72
23.72
21.38
19.21
17.62
16.78
16.67
17.08
17.78
18.55
19.19
19.43
18.94
17.51
15.05
11.73
7.84
3.68
-0.48
-4.56
-8.50
-12.29
-15.90
-19.40
-22.91
-26.57
-30.31
-33.71
-35.94
-36.05
-33.26
-27.33
-18.74
-8.62
1.67
10.84
18.06
22.94
25.53
26.09
24.98
22.62
19.54
16.35
13.68
12.03
11.62
12.28
13.53
14.80
15.59
15.67
15.06
13.95
12.52
10.81
8.76
6.32
3.52
0.48
-2.48
-5.14
-7.45
-9.61
-12.02
-15.08
-19.02
-23.59
-28.10
-31.47
-32.59
-30.68
-25.57
-17.81
-8.47
1.07
9.56
16.19
20.61
22.90
23.34
22.33
20.26
17.62
14.94
12.73
11.45
11.27
12.06
13.48
15.07
16.39
17.11
16.99
15.94
14.01
11.37
8.29
5.05
1.85
-1.24
-4.31
-7.43
-10.69
-14.15
-17.86
-21.83
-25.93
-29.85
-32.93
-34.37
-33.39
-29.58
-23.06
-14.55
-5.12
4.02
11.84
17.66
21.18
22.50
21.88
19.74
16.60
13.04
9.70
7.18
5.93
6.07
7.32
9.10
10.73
11.66
11.62
10.71
9.19
7.31
5.25
3.03
0.63
-1.98
-4.73
-7.51
-10.26
-13.03
-16.01
-19.38
-23.13
-26.92
-30.01
-31.42
-30.27
-26.09
-19.08
-10.06
-0.33
8.79
16.20
21.28
23.91
24.31
22.97
20.45
17.34
14.19
11.55
9.85
9.32
9.99
11.53
13.38
14.88
15.43
14.70
12.72
9.85
6.63
3.53
0.78
-1.63
-4.02
-6.73
-10.04
-14.03
-18.57
-23.45
-28.40
-33.09
-37.03
-39.55
-39.85
-37.30
-31.71
-23.53
-13.79
-3.80
5.26
12.59
17.92
21.30
22.95
23.07
21.89
19.73
17.08
14.58
12.88
12.37
13.09
14.68
16.47
17.75
18.00
16.93
14.65
11.45
7.71
3.76
-0.18
-3.98
-7.58
-10.94
-14.10
-17.19
-20.47
-24.29
-28.85
-34.05
-39.20
-43.18
-44.72
-42.81
-37.09
-28.07
-17.02
-5.49
4.99
13.38
19.23
22.63
24.02
23.94
22.92
21.40
19.75
18.30
17.34
17.05
17.43
18.24
19.03
19.35
18.84
17.47
15.39
12.84
10.00
6.95
3.66
0.14
-3.45
-6.82
-9.71
-12.10
-14.27
-16.77
-20.18
-24.75
-30.20
-35.63
-39.76
-41.25
-39.22
-33.46
-24.67
-14.15
-3.49
5.94
13.31
18.38
21.41
22.81
22.94
22.10
20.55
18.65
16.86
15.63
15.21
15.57
16.41
17.31
17.94
18.19
18.06
17.61
16.80
15.47
13.46
10.65
7.07
2.97
-1.33
-5.41
-8.93
-11.72
-13.88
-15.78
-17.97
-20.95
-24.91
-29.56
-34.07
-37.23
-37.86
-35.20
-29.18
-20.47
-10.30
-0.03
9.12
16.36
21.31
23.96
24.50
23.33
20.90
17.79
14.64
12.00
10.33
9.83
10.43
11.85
13.67
15.40
16.68
17.29
17.19
16.49
15.27
13.60
11.46
8.83
5.82
2.71
-0.18
-2.63
-4.68
-6.68
-9.06
-12.15
-16.02
-20.37
-24.67
-28.24
-30.40
-30.53
-28.21
-23.31
-16.16
-7.56
1.41
9.63
16.19
20.59
22.69
22.65
20.89
17.97
14.64
11.71
9.86
9.43
10.37
12.27
14.53
16.61
18.11
18.83
18.70
17.73
15.97
13.51
10.53
7.18
3.64
0.05
-3.47
-6.83
-9.98
-12.87
-15.59
-18.32
-21.35
-24.86
-28.85
-32.89
-36.21
-37.80
-36.76
-32.68
-25.78
-16.88
-7.14
2.29
10.55
17.12
21.69
24.16
24.55
23.13
20.46
17.33
14.52
12.65
12.01
12.50
13.80
15.46
17.10
18.36
19.00
18.85
17.80
15.83
13.02
9.61
5.84
1.98
-1.72
-5.14
-8.23
-11.09
-13.89
-16.87
-20.24
-24.11
-28.40
-32.78
-36.62
-39.16
-39.55
-37.25
-32.11
-24.48
-15.20
-5.39
3.88
11.74
17.70
21.54
23.24
22.98
21.10
18.25
15.31
13.23
12.68
13.80
16.09
18.68
20.70
21.67
21.61
20.90
19.93
18.85
17.49
15.51
12.64
8.81
4.27
-0.56
-5.21
-9.31
-12.72
-15.53
-18.10
-20.91
-24.44
-28.88
-33.95
-38.85
-42.41
-43.47
-41.24
-35.63
-27.27
-17.32
-7.12
2.26
10.10
16.12
20.23
22.45
22.87
21.72
19.46
16.77
14.43
13.01
12.78
13.56
14.87
16.10
16.82
16.84
16.24
15.26
14.03
12.63
10.95
8.89
6.41
3.66
0.88
-1.75
-4.22
-6.73
-9.60
-13.07
-17.28
-22.19
-27.48
-32.68
-37.06
-39.79
-40.02
-37.19
-31.21
-22.71
-12.81
-2.79
6.29
13.79
19.51
23.41
25.53
25.86
24.55
21.99
18.87
16.05
14.23
13.74
14.43
15.83
17.36
18.56
19.16
19.06
18.24
16.71
14.51
11.72
8.48
4.96
1.39
-2.05
-5.23
-8.08
-10.55
-12.73
-14.73
-16.78
-19.16
-22.09
-25.56
-29.22
-32.34
-33.97
-33.23
-29.67
-23.47
-15.39
-6.57
1.87
9.08
14.57
18.12
19.69
19.37
17.45
14.51
11.40
8.98
7.93
8.41
10.13
12.47
14.79
16.60
17.66
17.89
17.29
15.95
13.99
11.51
8.64
5.50
2.17
-1.23
-4.60
-7.78
-10.70
-13.38
-15.97
-18.67
-21.66
-24.95
-28.32
-31.29
-33.18
-33.27
-30.95
-26.01
-18.70
-9.83
-0.52
8.05
14.98
19.76
22.28
22.69
21.33
18.66
15.25
11.76
8.86
7.07
6.60
7.31
8.78
10.42
11.74
12.41
12.38
11.72
10.58
9.03
7.06
4.56
1.52
-1.88
-5.27
-8.22
-10.42
-11.84
-12.86
-14.07
-16.06
-19.11
-23.01
-26.98
-29.95
-30.81
-28.85
-23.95
-16.65
-7.93
1.02
9.14
15.71
20.32
22.88
23.47
22.33
19.85
16.58
13.22
10.44
8.75
8.37
9.10
10.46
11.85
12.83
13.19
12.99
12.30
11.16
9.47
7.10
4.05
0.57
-2.94
-6.06
-8.57
-10.60
-12.51
-14.74
-17.67
-21.50
-26.10
-31.00
-35.34
-37.97
-37.82
-34.27
-27.50
-18.54
-8.87
-0.02
7.01
11.85
14.72
16.01
16.16
15.39
13.91
11.99
9.97
8.23
7.07
6.64
6.92
7.76
8.90
10.08
11.00
11.40
11.05
9.84
7.79
5.05
1.90
-1.41
-4.72
-8.01
-11.37
-14.84
-18.44
-22.16
-26.02
-30.06
-34.25
-38.29
-41.47
-42.75
-41.15
-36.12
-27.95
-17.77
-7.10
2.52
10.10
15.32
18.34
19.60
19.55
18.49
16.77
14.77
12.97
11.86
11.78
12.72
14.35
16.13
17.56
18.32
18.33
17.64
16.35
14.46
11.88
8.58
4.66
0.36
-3.96
-8.03
-11.73
-15.09
-18.30
-21.62
-25.30
-29.45
-33.92
-38.24
-41.58
-42.93
-41.44
-36.70
-28.98
-19.21
-8.76
0.98
9.02
14.87
18.52
20.33
20.68
19.98
18.58
16.85
15.16
13.88
13.31
13.50
14.32
15.41
16.42
17.05
17.15
16.62
15.42
13.59
11.18
8.29
5.08
1.67
-1.83
-5.29
-8.56
-11.55
-14.18
-16.52
-18.86
-21.57
-24.91
-28.76
-32.48
-34.95
-35.00
-31.78
-25.29
-16.31
-6.21
3.55
11.77
17.87
21.71
23.43
23.31
21.68
18.99
15.85
12.96
11.00
10.37
11.06
12.74
14.87
16.85
18.28
18.93
18.75
17.78
16.09
13.69
10.57
6.74
2.38
-2.17
-6.47
-10.16
-13.14
-15.61
-17.98
-20.70
-24.02
-27.97
-32.18
-35.96
-38.47
-38.78
-36.23
-30.66
-22.45
-12.57
-2.29
7.17
14.88
20.35
23.49
24.49
23.71
21.64
18.93
16.31
14.47
13.86
14.56
16.18
18.13
19.76
20.73
21.01
20.74
20.08
18.95
17.09
14.21
10.27
5.55
0.70
-3.61
-6.98
-9.43
-11.42
-13.61
-16.54
-20.47
-25.29
-30.59
-35.75
-40.01
-42.59
-42.79
-40.06
-34.20
-25.53
-14.96
-3.80
6.58
15.11
21.26
25.04
26.77
26.91
25.92
24.23
22.31
20.65
19.68
19.59
20.27
21.36
22.34
22.80
22.54
21.63
20.23
18.57
16.76
14.72
12.32
9.42
6.02
2.35
-1.25
-4.42
-7.02
-9.21
-11.47
-14.35
-18.35
-23.60
-29.83
-36.29
-41.95
-45.64
-46.39
-43.68
-37.62
-28.91
-18.68
-8.14
1.66
10.04
16.60
21.20
23.84
24.67
24.00
22.36
20.43
18.88
18.17
18.39
19.36
20.66
21.93
22.99
23.83
24.50
24.97
25.08
24.52
23.06
20.60
17.23
13.19
8.83
4.44
0.22
-3.80
-7.72
-11.74
-16.09
-20.89
-26.20
-31.86
-37.49
-42.43
-45.83
-46.74
-44.48
-38.81
-30.22
-19.78
-8.91
1.14
9.55
16.03
20.60
23.41
24.57
24.25
22.78
20.80
19.08
18.30
18.76
20.21
22.00
23.34
23.70
22.96
21.39
19.47
17.61
15.92
14.27
12.32
9.83
6.79
3.46
0.27
-2.39
-4.36
-5.74
-6.85
-8.13
-9.99
-12.72
-16.44
-21.00
-25.88
-30.27
-33.07
-33.28
-30.28
-24.12
-15.54
-5.77
3.86
12.27
18.79
23.18
25.40
25.56
23.94
21.02
17.58
14.55
12.81
12.80
14.42
17.00
19.62
21.44
22.03
21.46
20.15
18.61
17.09
15.52
13.57
10.87
7.29
3.10
-1.17
-4.92
-7.78
-9.77
-11.22
-12.65
-14.54
-17.21
-20.74
-25.01
-29.69
-34.11
-37.41
-38.68
-37.22
-32.74
-25.56
-16.45
-6.47
3.32
12.03
19.00
23.84
26.41
26.82
25.43
22.82
19.71
16.83
14.80
13.95
14.33
15.61
17.24
18.65
19.34
19.14
18.13
16.59
14.80
12.88
10.76
8.18
4.95
1.04
-3.29
-7.57
-11.36
-14.33
-16.52
-18.27
-20.09
-22.51
-25.85
-30.17
-35.09
-39.93
-43.68
-45.27
-43.83
-39.02
-31.19
-21.24
-10.43
0.08
9.39
16.92
22.36
25.53
26.43
25.32
22.74
19.52
16.57
14.64
14.04
14.70
16.15
17.77
19.01
19.52
19.25
18.37
17.17
15.91
14.69
13.37
11.67
9.29
6.12
2.34
-1.68
-5.45
-8.68
-11.23
-13.31
-15.20
-17.37
-20.16
-23.80
-28.21
-32.99
-37.34
-40.17
-40.42
-37.37
-30.92
-21.71
-10.98
-0.17
9.44
16.99
22.14
24.97
25.88
25.36
23.90
21.98
20.00
18.36
17.34
17.14
17.75
18.96
20.36
21.49
22.04
21.87
21.07
19.75
17.96
15.58
12.45
8.52
4.02
-0.52
-4.49
-7.47
-9.36
-10.53
-11.55
-13.02
-15.31
-18.51
-22.43
-26.72
-30.82
-34.02
-35.58
-34.77
-31.20
-24.90
-16.44
-6.88
2.54
10.71
16.81
20.52
21.93
21.44
19.62
17.01
14.15
11.52
9.52
8.48
8.50
9.48
11.06
12.78
14.18
14.92
14.88
14.02
12.47
10.38
7.96
5.42
2.90
0.48
-1.89
-4.25
-6.68
-9.23
-11.92
-14.84
-18.17
-22.12
-26.75
-31.81
-36.59
-40.06
-41.13
-39.00
-33.57
-25.47
-15.92
-6.27
2.39
9.42
14.58
17.88
19.35
19.06
17.25
14.46
11.50
9.21
8.12
8.32
9.44
10.90
12.15
12.89
12.97
12.40
11.24
9.51
7.32
4.77
1.97
-1.00
-4.14
-7.46
-10.97
-14.57
-18.13
-21.59
-25.06
-28.83
-33.19
-38.08
-42.98
-46.85
-48.43
-46.75
-41.53
-33.33
-23.36
-13.02
-3.49
4.54
10.82
15.36
18.23
19.50
19.22
17.65
15.22
12.56
10.37
9.20
9.28
10.42
12.10
13.65
14.53
14.44
13.41
11.68
9.47
6.91
3.96
0.63
-3.02
-6.76
-10.32
-13.55
-16.59
-19.87
-23.83
-28.62
-33.83
-38.41
-41.01
-40.43
-36.12
-28.45
-18.56
-7.92
2.04
10.37
16.54
20.38
21.92
21.31
18.90
15.25
11.11
7.33
4.60
3.41
3.75
5.27
7.33
9.24
10.44
10.63
9.76
7.94
5.41
2.37
-0.90
-4.20
-7.33
-10.27
-13.18
-16.41
-20.29
-24.88
-29.87
-34.38
-37.21
-37.22
-33.63
-26.45
-16.49
-5.19
5.80
15.09
21.87
25.92
27.50
27.04
24.96
21.68
17.68
13.69
10.51
8.81
8.85
10.27
12.20
13.64
13.86
12.69
10.55
8.10
5.93
4.25
2.80
1.13
-1.22
-4.61
-9.07
-14.44
-20.32
-26.06
-30.75
-33.31
-32.78
-28.72
-21.39
-11.81
-1.42
8.33
16.40
22.26
25.78
27.01
26.05
23.09
18.60
13.37
8.47
4.91
3.36
3.80
5.72
8.18
10.23
11.16
10.60
8.61
5.60
2.07
-1.57
-5.13
-8.72
-12.62
-17.13
-22.39
-28.18
-33.93
-38.69
-41.35
-40.94
-36.93
-29.54
-19.62
-8.53
2.34
11.90
19.44
24.66
27.41
27.65
25.54
21.58
16.72
12.14
8.89
7.53
7.97
9.55
11.38
12.67
12.95
12.08
10.21
7.62
4.56
1.17
-2.53
-6.63
-11.35
-16.82
-23.00
-29.59
-35.89
-40.91
-43.61
-43.09
-38.97
-31.49
-21.58
-10.58
0.13
9.49
16.95
22.40
25.92
27.61
27.51
25.76
22.75
19.25
16.15
14.20
13.60
14.04
14.78
15.02
14.28
12.45
9.83
6.85
3.89
1.08
-1.66
-4.55
-7.78
-11.49
-15.78
-20.70
-26.19
-31.92
-37.18
-40.83
-41.65
-38.72
-31.87
-21.86
-10.17
1.51
11.82
20.04
26.03
30.00
32.18
32.77
31.95
30.07
27.65
25.35
23.82
23.41
24.15
25.72
27.57
29.12
29.93
29.75
28.54
26.37
23.36
19.56
15.06
10.00
4.55
-1.02
-6.59
-12.17
-17.95
-24.15
-30.74
-37.19
-42.42
-44.97
-43.52
-37.43
-27.14
-14.16
-0.48
11.98
22.04
29.33
34.12
36.81
37.65
36.75
34.31
30.88
27.37
24.71
23.52
23.75
24.82
25.93
26.44
26.21
25.43
24.49
23.53
22.42
20.77
18.27
14.80
10.64
6.29
2.24
-1.19
-3.97
-6.36
-8.77
-11.59
-15.11
-19.33
-23.88
-28.10
-31.10
-32.04
-30.27
-25.59
-18.29
-9.04
1.18
11.28
20.19
27.01
31.14
32.46
31.30
28.40
24.73
21.25
18.60
17.10
16.72
17.17
18.02
18.82
19.22
19.01
18.16
16.79
15.08
13.17
11.09
8.80
6.27
3.62
1.05
-1.21
-3.08
-4.72
-6.46
-8.73
-11.80
-15.74
-20.40
-25.39
-30.12
-33.84
-35.76
-35.18
-31.73
-25.54
-17.28
-7.95
1.35
9.65
16.29
20.86
23.20
23.38
21.72
18.85
15.65
13.06
11.81
12.24
14.12
16.85
19.62
21.70
22.63
22.36
21.08
19.16
16.93
14.52
11.91
8.97
5.61
1.92
-1.87
-5.47
-8.66
-11.44
-13.96
-16.46
-19.20
-22.37
-26.07
-30.22
-34.48
-38.17
-40.35
-40.06
-36.72
-30.36
-21.71
-11.92
-2.19
6.51
13.59
18.78
22.01
23.28
22.73
20.70
17.77
14.72
12.32
11.13
11.37
12.79
14.80
16.69
17.86
18.06
17.37
16.16
14.85
13.70
12.69
11.51
9.75
7.10
3.55
-0.57
-4.67
-8.21
-10.91
-12.91
-14.68
-16.79
-19.64
-23.29
-27.47
-31.65
-35.18
-37.32
-37.46
-35.09
-30.03
-22.59
-13.58
-4.09
4.75
12.05
17.34
20.53
21.80
21.43
19.76
17.23
14.40
11.95
10.45
10.25
11.26
12.99
14.77
16.00
16.36
15.86
14.76
13.34
11.73
9.90
7.67
5.00
1.98
-1.11
-3.96
-6.32
-8.13
-9.53
-10.75
-12.15
-14.06
-16.77
-20.43
-24.94
-29.82
-34.27
-37.27
-37.84
-35.45
-30.08
-22.35
-13.21
-3.78
4.99
12.29
17.61
20.63
21.35
20.05
17.34
14.09
11.15
9.20
8.56
9.14
10.54
12.20
13.63
14.45
14.56
14.05
13.09
11.82
10.29
8.45
6.26
3.70
0.89
-2.03
-4.93
-7.71
-10.37
-12.90
-15.36
-17.82
-20.41
-23.31
-26.69
-30.46
-34.17
-37.00
-37.93
-36.09
-31.20
-23.69
-14.58
-5.17
3.44
10.55
15.91
19.47
21.28
21.35
19.86
17.27
14.21
11.42
9.43
8.38
8.14
8.40
8.96
9.65
10.41
11.12
11.52
11.39
10.52
8.88
6.57
3.70
0.45
-2.97
-6.28
-9.17
-11.38
-12.87
-13.84
-14.78
-16.36
-19.14
-23.36
-28.74
-34.42
-39.13
-41.52
-40.65
-36.26
-28.86
-19.58
-9.71
-0.43
7.48
13.59
17.73
19.81
19.90
18.19
15.21
11.76
8.71
6.82
6.39
7.22
8.75
10.36
11.63
12.42
12.86
13.08
13.12
12.81
11.90
10.13
7.45
4.00
0.08
-3.92
-7.64
-10.87
-13.54
-15.74
-17.78
-20.01
-22.81
-26.32
-30.38
-34.41
-37.47
-38.58
-36.96
-32.31
-24.97
-15.83
-6.10
3.01
10.56
15.97
19.06
19.99
19.09
16.90
14.01
11.07
8.64
7.16
6.75
7.29
8.44
9.75
10.80
11.30
11.13
10.32
8.99
7.32
5.45
3.45
1.36
-0.88
-3.25
-5.68
-8.02
-10.11
-11.84
-13.34
-14.88
-16.87
-19.56
-22.85
-26.30
-29.02
-30.02
-28.51
-24.19
-17.43
-9.07
-0.33
7.69
14.13
18.53
20.82
21.19
19.97
17.58
14.60
11.64
9.32
8.04
7.90
8.70
10.07
11.58
12.94
13.96
14.52
14.53
13.84
12.35
10.03
6.94
3.30
-0.66
-4.66
-8.42
-11.61
-13.99
-15.56
-16.61
-17.74
-19.61
-22.61
-26.63
-30.94
-34.36
-35.71
-34.16
-29.52
-22.30
-13.51
-4.35
4.06
10.91
15.70
18.27
18.72
17.42
14.94
12.07
9.59
8.08
7.72
8.29
9.31
10.27
10.88
11.06
10.95
10.64
10.13
9.27
7.88
5.83
3.18
0.05
-3.35
-6.79
-10.05
-12.98
-15.49
-17.63
-19.63
-21.84
-24.54
-27.84
-31.46
-34.80
-37.02
-37.25
-34.88
-29.71
-22.09
-12.83
-3.00
6.25
14.02
19.74
23.29
24.78
24.48
22.77
20.06
16.92
13.90
11.61
10.44
10.47
11.43
12.82
14.08
14.77
14.72
13.96
12.60
10.72
8.33
5.43
2.06
-1.53
-5.00
-7.98
-10.24
-11.84
-13.18
-14.80
-17.25
-20.81
-25.29
-30.17
-34.53
-37.42
-37.96
-35.71
-30.66
-23.28
-14.43
-5.12
3.65
11.03
16.49
19.83
21.08
20.56
18.72
16.05
13.15
10.58
8.83
8.27
9.03
10.89
13.35
15.72
17.35
17.88
17.27
15.80
13.82
11.61
9.28
6.74
3.95
0.97
-2.02
-4.80
-7.18
-9.19
-11.04
-13.05
-15.56
-18.78
-22.72
-27.02
-31.05
-33.94
-34.82
-33.06
-28.45
-21.38
-12.70
-3.61
4.78
11.57
16.31
18.90
19.53
18.53
16.39
13.64
10.96
8.97
8.17
8.72
10.42
12.77
15.22
17.23
18.51
18.96
18.64
17.62
16.00
13.80
11.01
7.60
3.65
-0.60
-4.76
-8.48
-11.53
-14.04
-16.39
-19.16
-22.78
-27.38
-32.64
-37.79
-41.83
-43.67
-42.47
-37.82
-30.01
-19.89
-8.82
1.77
10.73
17.37
21.56
23.51
23.60
22.22
19.77
16.76
13.74
11.31
9.86
9.55
10.17
11.32
12.59
13.61
14.20
14.23
13.63
12.36
10.46
7.96
4.99
1.74
-1.58
-4.76
-7.66
-10.25
-12.71
-15.43
-18.85
-23.30
-28.79
-34.88
-40.65
-44.94
-46.62
-44.96
-39.80
-31.63
-21.42
-10.40
0.25
9.61
17.02
22.08
24.64
24.78
22.91
19.80
16.44
13.75
12.34
12.29
13.28
14.68
16.00
16.85
17.18
17.05
16.53
15.66
14.36
12.55
10.11
7.05
3.45
-0.46
-4.41
-8.11
-11.41
-14.37
-17.24
-20.42
-24.36
-29.32
-35.15
-41.18
-46.21
-48.89
-48.05
-43.20
-34.71
-23.70
-11.70
-0.18
9.81
17.70
23.34
26.73
28.03
27.43
25.39
22.53
19.60
17.36
16.25
16.33
17.30
18.57
19.56
19.84
19.32
18.13
16.52
14.63
12.40
9.69
6.42
2.69
-1.13
-4.61
-7.49
-9.81
-11.88
-14.12
-16.86
-20.25
-24.33
-29.04
-34.17
-39.19
-43.19
-45.06
-43.77
-38.85
-30.61
-20.10
-8.75
2.08
11.33
18.48
23.33
25.94
26.54
25.50
23.41
20.97
18.89
17.71
17.69
18.68
20.28
21.94
23.18
23.77
23.69
23.13
22.24
21.05
19.41
17.12
14.08
10.38
6.30
2.23
-1.49
-4.69
-7.41
-9.93
-12.63
-15.97
-20.27
-25.56
-31.38
-36.75
-40.34
-40.93
-37.76
-30.83
-20.93
-9.40
2.28
12.79
21.16
26.87
29.77
30.02
28.14
24.89
21.21
18.04
16.13
15.76
16.77
18.63
20.63
22.21
23.13
23.45
23.40
23.05
22.25
20.63
17.85
13.81
8.79
3.35
-1.88
-6.43
-10.15
-13.20
-15.91
-18.71
-21.98
-25.96
-30.69
-35.93
-41.06
-45.11
-46.94
-45.55
-40.42
-31.80
-20.61
-8.25
3.76
14.19
22.31
27.81
30.71
31.20
29.63
26.58
22.87
19.49
17.29
16.78
17.92
20.16
22.71
24.85
26.13
26.44
25.97
24.95
23.53
21.65
19.13
15.84
11.80
7.28
2.72
-1.44
-4.89
-7.66
-9.99
-12.35
-15.26
-19.15
-24.24
-30.42
-37.17
-43.62
-48.58
-50.84
-49.52
-44.34
-35.80
-24.98
-13.22
-1.77
8.51
17.11
23.80
28.44
30.90
31.17
29.51
26.59
23.38
20.91
19.96
20.69
22.69
25.15
27.20
28.33
28.42
27.77
26.69
25.36
23.69
21.49
18.55
14.87
10.66
6.34
2.30
-1.15
-3.97
-6.34
-8.60
-11.14
-14.30
-18.23
-22.95
-28.23
-33.53
-38.06
-40.83
-40.83
-37.39
-30.46
-20.72
-9.49
1.69
11.56
19.34
24.84
28.24
29.77
29.64
28.03
25.34
22.22
19.58
18.24
18.57
20.38
22.95
25.41
27.11
27.84
27.74
27.06
25.98
24.51
22.56
20.05
17.04
13.67
10.12
6.57
3.16
0.02
-2.73
-5.05
-7.01
-8.83
-10.86
-13.46
-16.95
-21.43
-26.69
-32.19
-37.08
-40.33
-40.99
-38.45
-32.61
-23.88
-13.22
-1.89
8.72
17.45
23.48
26.49
26.66
24.59
21.15
17.36
14.16
12.29
12.10
13.51
16.04
19.02
21.76
23.72
24.68
24.65
23.80
22.41
20.73
18.93
17.03
14.93
12.40
9.27
5.56
1.57
-2.31
-5.61
-8.15
-10.07
-11.77
-13.81
-16.63
-20.40
-24.90
-29.63
-33.82
-36.58
-37.11
-34.84
-29.65
-21.91
-12.49
-2.54
6.79
14.58
20.29
23.81
25.27
24.96
23.20
20.41
17.13
13.99
11.66
10.60
10.91
12.31
14.17
15.82
16.75
16.76
15.96
14.65
13.13
11.54
9.86
7.94
5.55
2.59
-0.79
-4.30
-7.57
-10.30
-12.45
-14.17
-15.80
-17.72
-20.23
-23.52
-27.62
-32.32
-37.15
-41.26
-43.64
-43.33
-39.73
-32.92
-23.66
-13.17
-2.78
6.41
13.73
18.88
21.85
22.81
22.03
19.91
17.01
14.04
11.69
10.53
10.80
12.34
14.69
17.24
19.39
20.68
20.94
20.23
18.80
16.95
14.85
12.57
10.05
7.17
3.87
0.18
-3.69
-7.46
-10.85
-13.75
-16.22
-18.50
-20.89
-23.67
-27.03
-31.01
-35.43
-39.74
-43.07
-44.36
-42.69
-37.65
-29.60
-19.59
-9.04
0.68
8.64
14.41
18.02
19.61
19.42
17.77
15.12
12.10
9.43
7.77
7.54
8.81
11.29
14.39
17.40
19.65
20.70
20.48
19.24
17.40
15.39
13.38
11.28
8.82
5.82
2.25
-1.61
-5.35
-8.54
-10.98
-12.72
-14.10
-15.65
-17.90
-21.20
-25.53
-30.49
-35.27
-38.83
-40.15
-38.55
-33.92
-26.77
-18.07
-8.94
-0.38
6.98
12.81
16.96
19.39
20.09
19.10
16.74
13.62
10.56
8.39
7.68
8.60
10.82
13.75
16.62
18.80
19.98
20.15
19.58
18.52
17.15
15.44
13.23
10.36
6.82
2.79
-1.43
-5.48
-9.16
-12.41
-15.41
-18.44
-21.82
-25.80
-30.41
-35.46
-40.39
-44.40
-46.56
-46.03
-42.34
-35.52
-26.25
-15.58
-4.82
4.92
12.80
18.41
21.65
22.61
21.54
18.87
15.25
11.56
8.75
7.58
8.30
10.63
13.79
16.82
18.90
19.66
19.15
17.74
15.92
13.99
12.07
10.02
7.63
4.73
1.30
-2.45
-6.18
-9.52
-12.31
-14.64
-16.81
-19.22
-22.23
-26.10
-30.87
-36.33
-41.88
-46.62
-49.36
-49.02
-44.94
-37.23
-26.82
-15.20
-3.92
5.86
13.56
19.11
22.63
24.23
23.97
22.03
18.92
15.48
12.72
11.46
12.02
14.05
16.63
18.80
19.79
19.44
18.09
16.31
14.62
13.16
11.77
10.05
7.65
4.42
0.53
-3.71
-7.88
-11.63
-14.76
-17.29
-19.55
-22.08
-25.48
-30.13
-35.99
-42.40
-48.20
-52.02
-52.60
-49.25
-42.00
-31.67
-19.59
-7.34
3.73
12.77
19.39
23.64
25.77
26.05
24.79
22.44
19.61
17.18
15.95
16.33
18.18
20.80
23.26
24.75
25.01
24.24
22.95
21.60
20.30
18.83
16.75
13.73
9.67
4.85
-0.21
-4.94
-8.96
-12.16
-14.69
-16.92
-19.27
-22.08
-25.57
-29.82
-34.68
-39.69
-44.06
-46.65
-46.31
-42.25
-34.45
-23.75
-11.68
0.07
10.08
17.56
22.31
24.55
24.65
22.97
19.99
16.38
13.00
10.71
10.13
11.42
14.17
17.58
20.74
23.00
24.10
24.21
23.64
22.62
21.16
19.05
16.00
11.98
7.26
2.36
-2.10
-5.70
-8.39
-10.41
-12.26
-14.46
-17.43
-21.42
-26.38
-31.94
-37.40
-41.79
-44.07
-43.43
-39.48
-32.43
-23.08
-12.58
-2.12
7.29
14.92
20.33
23.32
23.88
22.32
19.28
15.71
12.68
11.02
11.05
12.58
14.96
17.51
19.76
21.49
22.70
23.37
23.33
22.38
20.39
17.41
13.68
9.51
5.16
0.82
-3.37
-7.26
-10.77
-13.95
-17.05
-20.44
-24.56
-29.59
-35.37
-41.30
-46.43
-49.65
-49.94
-46.62
-39.57
-29.42
-17.37
-4.90
6.54
15.84
22.38
25.98
26.83
25.41
22.40
18.70
15.30
13.02
12.35
13.27
15.34
17.88
20.19
21.76
22.39
22.09
21.02
19.27
16.87
13.71
9.73
5.05
-0.01
-4.93
-9.26
-12.76
-15.53
-18.02
-20.86
-24.61
-29.60
-35.79
-42.73
-49.49
-54.86
-57.57
-56.58
-51.45
-42.48
-30.72
-17.62
-4.72
6.71
15.89
22.50
26.56
28.35
28.27
26.92
24.94
23.02
21.75
21.48
22.21
23.67
25.38
26.88
27.85
28.20
28.00
27.38
26.38
24.89
22.71
19.65
15.64
10.89
5.77
0.79
-3.64
-7.38
-10.69
-14.13
-18.36
-23.90
-30.82
-38.63
-46.36
-52.68
-56.22
-55.88
-51.19
-42.46
-30.72
-17.49
-4.36
7.40
17.08
24.48
29.73
32.99
34.36
34.00
32.28
29.87
27.69
26.57
26.94
28.66
31.07
33.33
34.72
34.91
33.97
32.23
30.04
27.58
24.81
21.60
17.83
13.53
8.92
4.31
0.06
-3.60
-6.66
-9.28
-11.82
-14.70
-18.32
-22.95
-28.69
-35.34
-42.30
-48.54
-52.72
-53.46
-49.87
-41.90
-30.42
-17.03
-3.52
8.66
18.65
26.13
31.08
33.55
33.65
31.73
28.56
25.28
23.07
22.73
24.34
27.24
30.44
33.00
34.42
34.67
34.09
33.01
31.58
29.78
27.45
24.50
20.96
16.98
12.79
8.56
4.44
0.57
-2.98
-6.20
-9.18
-12.10
-15.25
-18.90
-23.29
-28.47
-34.25
-40.09
-45.05
-47.95
-47.60
-43.25
-34.88
-23.33
-10.06
3.21
15.00
24.32
30.72
34.15
34.81
33.19
29.96
26.08
22.58
20.37
19.97
21.35
23.94
26.92
29.45
30.92
31.06
29.91
27.73
24.99
22.07
19.25
16.57
13.83
10.71
6.91
2.40
-2.54
-7.39
-11.69
-15.16
-17.95
-20.46
-23.28
-26.88
-31.52
-37.16
-43.43
-49.66
-54.80
-57.57
-56.80
-51.71
-42.35
-29.71
-15.47
-1.51
10.61
20.12
26.96
31.47
34.07
34.96
34.23
32.07
29.07
26.15
24.33
24.32
26.11
29.06
32.16
34.42
35.27
34.66
32.91
30.43
27.53
24.32
20.75
16.81
12.52
7.99
3.34
-1.29
-5.80
-10.08
-14.03
-17.63
-20.91
-24.10
-27.53
-31.55
-36.41
-42.04
-47.87
-52.86
-55.69
-55.07
-50.23
-41.24
-29.11
-15.46
-2.07
9.65
18.99
25.75
30.15
32.43
32.81
31.58
29.21
26.37
23.80
22.13
21.66
22.37
23.96
25.98
27.98
29.52
30.30
30.10
28.91
26.78
23.90
20.39
16.36
11.89
7.06
2.10
-2.68
-6.91
-10.41
-13.18
-15.48
-17.70
-20.21
-23.36
-27.33
-32.11
-37.48
-42.87
-47.36
-49.82
-49.20
-44.81
-36.70
-25.60
-12.83
0.07
11.74
21.13
27.67
31.15
31.71
29.84
26.29
22.02
18.08
15.29
14.19
14.76
16.57
18.88
20.91
22.13
22.34
21.71
20.58
19.22
17.71
15.93
13.66
10.70
7.05
2.88
-1.47
-5.71
-9.67
-13.37
-16.94
-20.60
-24.56
-28.97
-33.85
-38.96
-43.73
-47.24
-48.40
-46.32
-40.58
-31.53
-20.21
-8.11
3.32
12.95
20.17
24.80
26.93
26.80
24.80
21.48
17.59
14.00
11.52
10.62
11.33
13.20
15.47
17.37
18.37
18.31
17.33
15.77
13.87
11.68
9.09
5.95
2.19
-2.02
-6.34
-10.37
-13.84
-16.74
-19.37
-22.24
-25.87
-30.54
-36.16
-42.16
-47.54
-51.13
-51.85
-49.08
-42.81
-33.68
-22.77
-11.37
-0.59
8.70
16.03
21.15
24.02
24.77
23.68
21.30
18.32
15.55
13.72
13.28
14.23
16.18
18.51
20.56
21.95
22.53
22.45
21.80
20.58
18.60
15.64
11.64
6.86
1.77
-3.08
-7.32
-10.93
-14.16
-17.43
-21.16
-25.57
-30.66
-36.15
-41.48
-45.78
-48.08
-47.45
-43.34
-35.79
-25.58
-14.02
-2.59
7.45
15.34
20.85
24.11
25.36
24.87
22.95
20.12
17.05
14.56
13.26
13.35
14.57
16.33
17.90
18.83
18.92
18.21
16.87
15.03
12.72
9.96
6.78
3.32
-0.17
-3.45
-6.34
-8.87
-11.25
-13.79
-16.86
-20.64
-25.09
-29.77
-33.93
-36.60
-36.80
-33.88
-27.74
-18.94
-8.61
1.85
11.14
18.31
22.95
25.07
24.97
23.09
20.00
16.34
12.79
10.03
8.53
8.52
9.89
12.24
14.99
17.59
19.58
20.64
20.61
19.44
17.16
13.89
9.81
5.17
0.39
-4.20
-8.35
-12.06
-15.59
-19.34
-23.71
-28.80
-34.22
-39.11
-42.32
-42.70
-39.52
-32.79
-23.26
-12.26
-1.33
8.21
15.51
20.26
22.54
22.67
21.08
18.26
14.82
11.44
8.84
7.57
7.80
9.35
11.69
14.15
16.12
17.19
17.18
16.08
13.94
10.86
6.95
2.41
-2.48
-7.38
-11.90
-15.82
-19.09
-21.93
-24.79
-28.21
-32.55
-37.83
-43.54
-48.59
-51.66
-51.51
-47.48
-39.68
-29.02
-16.96
-5.06
5.36
13.41
18.70
21.27
21.49
19.98
17.51
14.89
12.88
11.95
12.30
13.81
16.15
18.91
21.64
23.98
25.58
26.20
25.77
24.35
22.13
19.35
16.17
12.62
8.79
4.78
0.80
-3.01
-6.62
-10.35
-14.69
-20.01
-26.30
-32.90
-38.52
-41.76
-41.47
-37.23
-29.51
-19.50
-8.67
1.62
10.46
17.40
22.40
25.51
26.78
26.22
24.05
20.71
17.00
13.81
11.90
11.62
12.81
14.91
17.24
19.17
20.34
20.60
19.94
18.31
15.65
12.01
7.56
2.66
-2.16
-6.52
-10.23
-13.46
-16.67
-20.37
-24.97
-30.52
-36.68
-42.67
-47.40
-49.70
-48.61
-43.72
-35.35
-24.55
-12.73
-1.37
8.41
15.96
21.09
23.90
24.65
23.68
21.45
18.56
15.65
13.40
12.19
12.16
13.11
14.63
16.28
17.72
18.74
19.23
18.97
17.67
14.90
10.35
4.02
-3.70
-12.04
-20.13
-27.28
-33.19
-37.98
-42.13
-46.31
-51.19
-57.13
-64.01
-71.08
-76.98
-80.13
-79.13
-73.28
-62.84
-48.87
-32.87
-16.29
-0.20
14.84
28.55
40.73
51.11
59.38
65.46
69.70
72.94
76.32
80.95
87.46
95.81
105.25
114.48
122.02
126.36
126.26
120.76
109.50
92.76
71.60
47.77
23.32
0.24
-20.04
-36.80
-50.07
-60.35
-68.35
-74.73
-80.11
-84.99
-89.71
-94.33
-98.41
-100.99
-100.70
-96.34
-87.30
-74.06
-58.19
-41.80
-26.78
-14.01
-3.08
7.51
19.62
34.62
52.82
73.43
95.00
115.98
135.31
152.55
167.70
180.87
192.16
201.54
208.89
213.78
215.08
210.80
198.17
174.58
138.82
92.29
39.25
-13.98
-60.93
-96.97
-120.71
-133.98
-140.61
-144.61
-148.56
-152.93
-156.52
-157.39
-154.02
-145.93
-133.62
-118.14
-100.65
-82.18
-63.91
-47.23
-33.83
-25.25
-22.39
-25.03
-31.78
-40.55
-49.14
-56.03
-60.59
-63.12
-64.46
-65.50
-66.85
-68.63
-70.62
-72.41
-73.71
-74.44
-74.73
-74.80
-74.79
-74.72
-74.53
-74.19
-73.85
-73.91
-74.84
-77.03
-80.45
-84.49
-87.98
-89.46
-87.56
-81.39
-70.86
-56.66
-40.14
-22.95
-6.69
7.35
18.32
25.85
29.97
31.02
29.62
26.57
22.76
19.02
16.06
14.28
13.80
14.44
15.82
17.42
18.65
18.99
18.08
15.82
12.43
8.23
3.60
-1.28
-6.50
-12.36
-19.17
-27.06
-35.68
-44.20
-51.37
-55.80
-56.34
-52.39
-44.06
-32.27
-18.42
-4.10
9.20
20.42
29.03
34.92
38.33
39.60
39.08
37.14
34.20
30.87
27.86
25.79
24.95
25.19
25.89
26.26
25.71
23.99
21.33
18.17
14.95
11.90
9.01
5.96
2.33
-2.20
-7.83
-14.46
-21.57
-28.30
-33.49
-35.87
-34.49
-28.92
-19.54
-7.41
6.02
19.28
31.22
41.11
48.61
53.54
55.84
55.55
52.95
48.65
43.55
38.59
34.53
31.72
29.99
28.90
27.90
26.58
24.84
22.82
20.74
18.78
16.84
14.65
11.76
7.69
2.11
-5.02
-13.34
-21.94
-29.51
-34.55
-35.81
-32.66
-25.31
-14.79
-2.59
9.77
21.09
30.64
37.95
42.78
44.94
44.46
41.71
37.47
32.74
28.49
25.33
23.39
22.36
21.78
21.23
20.43
19.30
17.86
16.14
14.14
11.76
8.79
4.94
-0.12
-6.63
-14.49
-23.08
-31.24
-37.40
-40.04
-38.08
-31.26
-20.27
-6.50
8.25
22.36
34.53
44.06
50.63
54.23
55.00
53.25
49.46
44.40
38.90
33.80
29.72
26.88
25.02
23.60
21.94
19.61
16.53
13.05
9.72
6.95
4.74
2.64
-0.10
-4.22
-10.02
-17.19
-24.68
-31.01
-34.57
-34.11
-29.16
-20.08
-8.09
5.20
18.14
29.41
38.23
44.29
47.60
48.36
46.90
43.71
39.40
34.72
30.40
26.91
24.44
22.79
21.52
20.17
18.40
16.17
13.66
11.16
8.91
6.94
5.00
2.66
-0.62
-5.24
-11.26
-18.14
-24.79
-29.67
-31.33
-28.84
-22.14
-12.11
-0.27
11.74
22.59
31.48
38.04
42.17
43.89
43.36
40.86
36.96
32.37
27.84
23.92
20.81
18.43
16.41
14.38
12.04
9.36
6.55
3.93
1.80
0.21
-1.10
-2.68
-5.17
-9.01
-14.26
-20.45
-26.65
-31.62
-34.12
-33.21
-28.57
-20.59
-10.33
0.82
11.52
20.71
27.82
32.65
35.25
35.77
34.47
31.74
28.14
24.44
21.31
19.21
18.14
17.68
17.20
16.13
14.21
11.61
8.70
5.90
3.39
0.99
-1.68
-5.11
-9.66
-15.34
-21.75
-28.07
-33.17
-35.88
-35.28
-31.03
-23.45
-13.53
-2.52
8.30
17.90
25.58
30.84
33.39
33.09
30.14
25.15
19.10
13.16
8.35
5.23
3.78
3.48
3.57
3.41
2.70
1.50
0.14
-1.08
-1.98
-2.66
-3.43
-4.75
-7.01
-10.50
-15.14
-20.38
-25.26
-28.54
-29.10
-26.36
-20.47
-12.25
-3.04
5.83
13.30
18.72
21.88
22.81
21.71
18.91
14.91
10.30
5.82
2.08
-0.58
-2.13
-2.86
-3.17
-3.36
-3.59
-3.85
-4.12
-4.44
-4.99
-5.96
-7.50
-9.68
-12.52
-16.00
-20.02
-24.27
-28.06
-30.49
-30.60
-27.82
-22.25
-14.58
-5.97
2.45
9.76
15.42
19.18
20.93
20.74
18.81
15.57
11.69
7.90
4.78
2.62
1.39
0.77
0.43
0.10
-0.36
-0.95
-1.64
-2.42
-3.24
-4.13
-5.15
-6.44
-8.26
-10.83
-14.20
-18.05
-21.70
-24.16
-24.52
-22.29
-17.57
-11.08
-3.84
3.09
8.91
13.12
15.53
16.03
14.66
11.65
7.51
2.99
-1.04
-3.90
-5.35
-5.61
-5.25
-4.93
-5.10
-5.93
-7.27
-8.83
-10.35
-11.62
-12.62
-13.55
-14.72
-16.48
-19.05
-22.35
-25.83
-28.61
-29.66
-28.18
-23.91
-17.23
-9.13
-0.76
6.79
12.76
16.73
18.57
18.33
16.15
12.42
7.72
2.86
-1.36
-4.31
-5.78
-5.93
-5.20
-4.12
-3.11
-2.46
-2.24
-2.43
-2.91
-3.58
-4.44
-5.65
-7.47
-10.15
-13.69
-17.72
-21.44
-23.87
-24.15
-21.90
-17.32
-11.15
-4.36
2.14
7.70
11.92
14.57
15.47
14.55
11.95
8.15
3.89
0.06
-2.64
-3.91
-3.95
-3.31
-2.55
-2.04
-1.83
-1.85
-1.96
-2.11
-2.36
-2.83
-3.63
-4.91
-6.81
-9.38
-12.52
-15.76
-18.34
-19.35
-18.09
-14.35
-8.55
-1.66
5.17
10.87
14.81
16.74
16.80
15.31
12.67
9.36
5.82
2.50
-0.16
-1.93
-2.76
-2.89
-2.67
-2.54
-2.83
-3.66
-4.98
-6.55
-8.13
-9.57
-10.93
-12.44
-14.44
-17.15
-20.52
-24.07
-26.93
-28.11
-26.82
-22.82
-16.54
-8.98
-1.32
5.35
10.33
13.35
14.43
13.84
11.95
9.17
5.96
2.85
0.25
-1.61
-2.72
-3.26
-3.52
-3.73
-4.05
-4.51
-5.10
-5.72
-6.35
-7.08
-8.10
-9.72
-12.16
-15.43
-19.13
-22.48
-24.49
-24.25
-21.29
-15.71
-8.17
0.31
8.65
15.83
21.14
24.18
24.96
23.84
21.57
19.03
17.04
16.17
16.54
17.91
19.81
21.77
23.43
24.67
25.50
26.04
26.40
26.67
26.81
26.74
26.37
25.71
25.01
24.92
26.46
30.77
38.67
50.14
64.03
78.20
90.06
97.40
98.97
94.72
85.48
72.51
57.02
40.03
22.41
4.99
-11.39
-26.08
-38.84
-49.88
-59.77
-69.07
-77.97
-86.21
-93.19
-98.30
-101.30
-102.55
-102.85
-103.19
-104.30
-106.34
-108.74
-110.44
-110.13
-106.81
-100.05
-90.20
-78.29
-65.69
-53.80
-43.70
-36.04
-31.04
-28.55
-28.07
-28.91
-30.19
-31.11
-31.05
-29.80
-27.59
-24.84
-22.08
-19.71
-17.97
-16.90
-16.47
-16.58
-17.18
-18.23
-19.85
-22.15
-25.19
-28.74
-32.12
-34.31
-34.20
-30.96
-24.43
-15.23
-4.60
5.99
15.21
22.10
26.22
27.57
26.52
23.71
19.89
15.91
12.46
10.04
8.78
8.52
8.93
9.58
10.10
10.21
9.72
8.57
6.74
4.30
1.29
-2.27
-6.42
-11.08
-15.96
-20.35
-23.26
-23.61
-20.70
-14.46
-5.59
4.64
14.74
23.41
29.68
33.05
33.48
31.39
27.55
23.03
18.93
16.04
14.69
14.66
15.42
16.32
16.89
16.83
15.96
14.19
11.48
7.93
3.70
-0.93
-5.78
-10.78
-15.84
-20.66
-24.48
-26.18
-24.63
-19.22
-10.20
1.18
13.12
23.79
31.82
36.59
38.19
37.17
34.26
30.21
25.70
21.40
17.87
15.42
14.18
13.91
14.23
14.63
14.70
14.20
13.07
11.38
9.21
6.52
3.15
-1.11
-6.27
-11.91
-17.14
-20.72
-21.47
-18.68
-12.39
-3.38
7.02
17.37
26.46
33.43
37.84
39.56
38.76
35.85
31.52
26.59
21.92
18.23
15.87
14.83
14.77
15.16
15.43
15.14
13.97
11.80
8.68
4.74
0.14
-5.00
-10.64
-16.68
-22.86
-28.61
-33.11
-35.34
-34.53
-30.30
-22.99
-13.52
-3.20
6.66
15.00
21.21
25.06
26.61
26.18
24.26
21.51
18.69
16.40
14.97
14.36
14.23
14.14
13.78
13.06
12.13
11.17
10.30
9.45
8.40
6.77
4.19
0.40
-4.58
-10.28
-15.78
-19.82
-21.14
-18.83
-12.68
-3.30
8.02
19.63
30.02
38.03
43.13
45.23
44.69
42.00
37.82
32.93
28.17
24.37
22.02
21.18
21.44
22.02
22.21
21.57
20.03
17.79
15.14
12.23
9.11
5.66
1.78
-2.63
-7.58
-12.94
-18.31
-22.94
-25.85
-26.08
-23.03
-16.76
-8.00
2.01
11.89
20.43
26.82
30.68
32.00
31.08
28.40
24.62
20.44
16.55
13.53
11.68
10.96
11.10
11.58
11.87
11.58
10.49
8.61
6.17
3.40
0.52
-2.40
-5.47
-8.94
-13.04
-17.73
-22.51
-26.45
-28.40
-27.43
-23.15
-16.02
-7.08
2.33
11.03
18.14
23.20
25.92
26.16
24.06
20.09
15.15
10.41
6.90
5.17
5.09
5.98
6.98
7.43
7.06
5.96
4.42
2.71
0.98
-0.75
-2.52
-4.50
-6.94
-10.13
-14.25
-19.12
-24.06
-27.93
-29.51
-27.89
-22.92
-15.25
-6.14
2.95
10.83
16.77
20.50
22.05
21.61
19.51
16.22
12.42
8.93
6.49
5.57
6.14
7.75
9.67
11.16
11.71
11.18
9.75
7.76
5.55
3.36
1.21
-1.02
-3.61
-6.84
-10.84
-15.50
-20.29
-24.28
-26.41
-25.71
-21.80
-15.01
-6.32
2.93
11.51
18.56
23.63
26.63
27.57
26.52
23.68
19.51
14.75
10.30
7.02
5.41
5.43
6.65
8.36
9.85
10.60
10.37
9.22
7.42
5.36
3.36
1.57
-0.11
-2.01
-4.50
-7.87
-12.04
-16.51
-20.46
-22.97
-23.25
-20.98
-16.36
-10.07
-3.00
3.92
9.93
14.50
17.37
18.47
17.87
15.85
12.79
9.31
6.04
3.58
2.28
2.17
2.97
4.15
5.14
5.48
4.95
3.60
1.70
-0.42
-2.46
-4.30
-6.00
-7.82
-10.09
-13.08
-16.84
-21.01
-24.87
-27.48
-27.93
-25.66
-20.68
-13.62
-5.56
2.30
8.90
13.59
16.11
16.59
15.39
13.06
10.19
7.33
5.01
3.53
2.96
3.14
3.68
4.09
3.96
3.04
1.40
-0.72
-2.93
-4.93
-6.54
-7.88
-9.21
-10.83
-13.02
-15.87
-19.22
-22.67
-25.52
-26.96
-26.27
-23.05
-17.42
-10.06
-1.98
5.74
12.23
17.02
19.99
21.24
20.93
19.25
16.44
12.95
9.37
6.35
4.43
3.77
4.14
4.93
5.52
5.44
4.58
3.14
1.49
-0.01
-1.21
-2.20
-3.22
-4.57
-6.54
-9.24
-12.59
-16.25
-19.59
-21.84
-22.24
-20.28
-15.94
-9.72
-2.55
4.50
10.45
14.63
16.82
17.12
15.87
13.49
10.34
6.83
3.40
0.56
-1.22
-1.66
-0.87
0.63
2.05
2.72
2.28
0.90
-0.96
-2.78
-4.21
-5.28
-6.23
-7.31
-8.68
-10.42
-12.53
-14.96
-17.52
-19.83
-21.28
-21.20
-19.11
-14.91
-8.96
-2.01
4.98
11.10
15.61
18.06
18.35
16.70
13.62
9.75
5.80
2.36
-0.16
-1.57
-1.92
-1.44
-0.54
0.34
0.80
0.64
-0.14
-1.36
-2.78
-4.20
-5.58
-7.04
-8.84
-11.23
-14.32
-17.94
-21.64
-24.68
-26.21
-25.53
-22.35
-16.91
-9.96
-2.57
4.21
9.52
12.92
14.28
13.81
11.90
9.08
5.94
3.08
1.02
0.04
0.21
1.36
3.18
5.30
7.35
8.91
9.69
9.52
8.48
6.81
4.82
2.69
0.36
-2.47
-6.19
-10.92
-16.36
-21.72
-25.88
-27.79
-26.74
-22.71
-16.29
-8.58
-0.78
6.08
11.35
14.80
16.45
16.44
14.96
12.32
9.00
5.67
3.05
1.63
1.57
2.56
4.00
5.20
5.64
5.07
3.56
1.39
-1.05
-3.37
-5.35
-6.97
-8.44
-10.03
-12.00
-14.37
-16.91
-19.12
-20.39
-20.20
-18.24
-14.54
-9.43
-3.51
2.49
7.81
11.78
13.92
14.02
12.10
8.53
3.90
-1.00
-5.32
-8.33
-9.62
-9.14
-7.25
-4.54
-1.70
0.73
2.43
3.38
3.74
3.73
3.48
3.00
2.16
0.82
-1.16
-3.74
-6.72
-9.67
-11.98
-13.01
-12.28
-9.64
-5.37
-0.16
5.12
9.59
12.63
13.92
13.45
11.43
8.25
4.47
0.74
-2.27
-4.03
-4.33
-3.30
-1.37
0.89
2.95
4.44
5.20
5.18
4.47
3.23
1.66
-0.10
-1.94
-3.94
-6.25
-8.98
-11.97
-14.72
-16.44
-16.29
-13.75
-8.93
-2.56
4.16
9.97
13.98
15.76
15.46
13.51
10.47
6.87
3.16
-0.21
-2.83
-4.34
-4.59
-3.75
-2.34
-1.02
-0.38
-0.66
-1.68
-3.03
-4.32
-5.33
-6.14
-7.07
-8.41
-10.36
-12.81
-15.41
-17.62
-18.83
-18.51
-16.40
-12.57
-7.45
-1.78
3.62
7.99
10.76
11.68
10.80
8.46
5.22
1.72
-1.43
-3.80
-5.19
-5.62
-5.31
-4.62
-3.88
-3.40
-3.35
-3.72
-4.34
-4.98
-5.52
-6.05
-6.90
-8.48
-11.03
-14.42
-18.04
-20.94
-22.18
-21.12
-17.67
-12.34
-6.02
0.19
5.27
8.53
9.64
8.69
6.13
2.64
-1.05
-4.27
-6.57
-7.81
-8.06
-7.60
-6.73
-5.73
-4.79
-4.10
-3.79
-4.00
-4.79
-6.19
-8.21
-10.87
-14.12
-17.82
-21.56
-24.60
-26.05
-25.14
-21.58
-15.70
-8.42
-0.94
5.61
10.43
13.17
13.88
12.88
10.67
7.83
4.95
2.52
0.82
-0.10
-0.37
-0.23
0.09
0.36
0.38
0.05
-0.69
-1.83
-3.30
-5.12
-7.44
-10.48
-14.36
-18.82
-23.12
-26.12
-26.68
-24.13
-18.62
-11.07
-2.90
4.50
10.13
13.56
14.88
14.44
12.74
10.26
7.46
4.77
2.57
1.15
0.60
0.81
1.51
2.30
2.81
2.79
2.18
1.08
-0.36
-2.07
-4.12
-6.76
-10.15
-14.21
-18.44
-21.93
-23.61
-22.59
-18.51
-11.77
-3.44
5.07
12.39
17.50
19.96
19.83
17.68
14.27
10.49
7.08
4.51
2.94
2.29
2.29
2.67
3.20
3.65
3.81
3.41
2.25
0.31
-2.23
-5.10
-8.12
-11.27
-14.67
-18.25
-21.57
-23.76
-23.75
-20.83
-14.96
-6.96
1.77
9.75
15.84
19.54
20.90
20.29
18.21
15.23
11.87
8.61
5.88
3.95
2.89
2.61
2.85
3.31
3.74
3.96
3.90
3.51
2.68
1.21
-1.20
-4.79
-9.51
-14.89
-19.97
-23.53
-24.44
-22.03
-16.35
-8.20
1.16
10.30
18.02
23.58
26.72
27.57
26.52
24.12
20.98
17.75
15.01
13.17
12.31
12.17
12.24
12.01
11.16
9.66
7.74
5.64
3.51
1.32
-1.10
-3.93
-7.32
-11.28
-15.62
-19.93
-23.53
-25.52
-25.09
-21.68
-15.33
-6.74
2.92
12.29
20.19
25.88
29.14
30.23
29.71
28.26
26.58
25.23
24.66
25.05
26.35
28.21
30.07
31.34
31.62
30.78
29.01
26.63
23.90
20.98
17.95
14.88
11.93
9.36
7.51
6.76
7.58
10.43
15.75
23.61
33.60
44.79
55.99
66.16
74.68
81.40
86.33
89.30
89.97
88.03
83.60
77.46
70.96
65.47
61.86
60.13
59.52
58.87
57.16
53.76
48.55
41.75
33.78
25.17
16.50
8.32
0.97
-5.54
-11.65
-18.02
-25.18
-33.16
-41.36
-48.62
-53.72
-55.78
-54.60
-50.75
-45.33
-39.65
-34.93
-32.04
-31.29
-32.43
-34.62
-36.78
-37.90
-37.39
-35.33
-32.37
-29.38
-27.22
-26.51
-27.66
-30.87
-36.10
-42.79
-49.86
-55.79
-59.23
-59.52
-57.18
-53.71
-51.04
-50.61
-52.68
-56.20
-59.25
-59.85
-56.64
-49.35
-38.67
-25.91
-12.52
0.22
11.35
20.21
26.47
30.04
31.20
30.58
29.15
27.84
27.47
28.34
30.31
32.84
35.24
36.92
37.56
37.17
36.04
34.54
33.02
31.71
30.60
29.50
28.06
25.90
22.85
19.12
15.39
12.63
11.71
12.97
15.96
19.56
22.41
23.40
22.10
18.77
14.07
8.64
2.91
-2.94
-8.83
-14.56
-19.77
-24.10
-27.38
-29.72
-31.51
-33.29
-35.52
-38.47
-42.23
-46.74
-51.83
-57.19
-62.35
-66.71
-69.69
-70.90
-70.20
-67.68
-63.49
-57.70
-50.36
-41.55
-31.54
-20.83
-10.09
0.05
9.07
16.58
22.35
26.22
28.23
28.66
28.06
27.10
26.30
25.98
26.07
26.29
26.25
25.65
24.33
22.25
19.48
16.05
12.07
7.68
3.10
-1.46
-5.84
-10.03
-14.13
-18.14
-21.73
-24.15
-24.35
-21.40
-15.03
-5.76
5.09
15.98
25.64
33.37
38.98
42.44
43.63
42.30
38.34
32.02
24.23
16.22
9.07
3.30
-1.30
-5.52
-10.25
-16.03
-22.88
-30.27
-37.51
-43.86
-48.78
-51.83
-52.70
-51.32
-47.93
-43.05
-37.32
-31.17
-24.50
-16.73
-7.20
4.42
17.64
31.27
43.78
53.98
61.38
66.27
69.27
70.93
71.43
70.72
68.77
65.91
62.78
60.13
58.36
57.18
55.65
52.56
46.98
38.68
28.21
16.55
4.66
-6.94
-18.27
-29.66
-41.39
-53.46
-65.52
-76.90
-86.84
-94.50
-99.08
-99.90
-96.56
-89.19
-78.45
-65.57
-52.06
-39.30
-28.32
-19.65
-13.42
-9.50
-7.62
-7.49
-8.71
-10.76
-13.07
-15.17
-16.80
-18.08
-19.33
-20.88
-22.78
-24.70
-26.06
-26.29
-25.21
-23.19
-21.12
-20.11
-21.03
-24.24
-29.40
-35.45
-40.91
-44.29
-44.43
-40.79
-33.60
-23.75
-12.55
-1.40
8.51
16.42
22.10
25.66
27.48
27.93
27.38
26.01
24.03
21.67
19.19
16.75
14.31
11.62
8.29
4.26
-0.15
-4.08
-6.61
-7.22
-6.19
-4.58
-3.78
-4.76
-7.56
-11.15
-13.83
-13.93
-10.51
-3.62
5.83
16.42
26.72
35.69
42.71
47.58
50.39
51.28
50.54
48.44
45.29
41.33
36.56
30.74
23.40
14.14
3.06
-8.98
-20.46
-29.65
-35.25
-36.79
-34.77
-30.28
-24.64
-18.94
-13.98
-10.22
-7.81
-6.53
-5.77
-4.59
-1.99
2.74
9.62
18.00
26.65
34.11
39.13
40.86
39.04
34.17
27.28
19.75
12.83
7.20
2.86
-0.75
-4.26
-7.87
-11.07
-12.92
-12.52
-9.50
-4.36
1.60
6.67
9.13
7.74
2.03
-7.51
-19.34
-31.06
-39.95
-43.56
-40.47
-30.78
-16.07
0.93
17.18
30.00
37.66
39.47
35.78
27.70
16.86
5.08
-5.89
-14.66
-20.50
-23.40
-24.06
-23.52
-22.83
-22.69
-23.25
-24.15
-24.90
-25.08
-24.65
-24.00
-23.71
-24.29
-25.91
-28.23
-30.45
-31.57
-30.63
-27.07
-20.86
-12.56
-3.22
6.00
14.03
20.16
24.14
26.08
26.36
25.35
23.41
20.85
17.97
15.10
12.57
10.61
9.35
8.68
8.37
8.18
7.99
7.82
7.91
8.52
9.80
11.69
14.11
16.99
20.54
25.16
31.30
39.10
48.27
58.07
67.58
76.02
82.96
88.44
92.71
96.00
98.25
99.10
97.93
94.13
87.23
77.13
63.99
48.19
30.23
10.74
-9.23
-28.39
-45.24
-58.59
-67.96
-73.65
-76.39
-76.79
-74.79
-69.71
-60.71
-47.50
-30.72
-11.95
6.86
23.84
37.56
47.12
51.94
51.83
47.02
38.35
27.12
14.89
3.13
-7.15
-15.39
-21.49
-25.62
-28.03
-28.93
-28.43
-26.35
-22.43
-16.53
-9.03
-1.04
5.90
10.36
11.74
10.82
9.57
10.52
15.73
25.94
40.23
56.26
71.08
81.91
86.90
85.42
77.97
65.82
50.58
33.79
16.79
0.79
-13.21
-24.39
-32.29
-37.07
-39.52
-40.80
-42.09
-44.22
-47.57
-52.14
-57.81
-64.37
-71.46
-78.42
-84.22
-87.58
-87.44
-83.26
-75.21
-64.12
-51.18
-37.70
-24.93
-14.06
-6.18
-2.14
-2.39
-6.69
-14.09
-23.11
-32.04
-39.43
-44.37
-46.54
-46.18
-43.80
-40.00
-35.44
-30.79
-26.80
-24.33
-24.10
-26.48
-31.18
-37.11
-42.47
-45.26
-43.80
-37.25
-25.98
-11.46
4.13
18.54
29.95
37.37
40.60
40.08
36.63
31.21
24.90
18.76
13.64
10.14
8.37
7.91
8.04
7.93
7.03
5.14
2.41
-0.88
-4.55
-8.66
-13.37
-18.73
-24.41
-29.67
-33.61
-35.57
-35.60
-34.26
-32.29
-30.00
-27.05
-22.58
-15.85
-6.85
3.59
14.16
23.72
31.78
38.52
44.44
49.82
54.54
58.23
60.61
61.72
61.91
61.55
60.84
59.65
57.71
54.84
51.14
47.17
43.78
41.86
41.95
43.97
47.18
50.61
53.66
56.67
60.88
67.82
78.28
91.42
104.71
114.67
118.18
113.82
102.31
86.36
69.54
55.28
46.02
42.87
45.68
53.22
63.39
73.47
80.48
81.82
75.83
62.44
43.34
21.64
1.07
-15.06
-24.80
-28.13
-26.78
-23.53
-21.26
-22.03
-26.67
-34.80
-45.15
-56.04
-65.86
-73.39
-78.05
-80.02
-80.26
-80.24
-81.47
-84.94
-90.79
-98.19
-105.66
-111.73
-115.48
-116.81
-116.34
-114.85
-112.73
-109.60
-104.46
-96.21
-84.39
-69.64
-53.58
-38.22
-25.22
-15.34
-8.53
-4.27
-2.05
-1.55
-2.37
-3.82
-4.87
-4.51
-2.27
1.40
5.37
8.26
9.16
8.04
5.62
2.93
0.75
-0.72
-1.81
-3.04
-4.73
-6.69
-8.12
-7.96
-5.12
0.98
10.10
21.05
31.90
40.32
44.17
41.96
33.16
18.27
-1.24
-23.12
-44.62
-62.89
-75.52
-81.05
-79.39
-71.72
-60.13
-46.87
-33.73
-21.71
-11.25
-2.60
3.67
6.70
5.82
1.15
-5.98
-13.26
-18.10
-18.68
-14.67
-7.33
1.18
8.71
14.06
17.23
19.06
20.59
22.33
24.02
24.87
24.09
21.38
17.20
12.58
8.85
7.12
7.93
11.10
15.75
20.43
23.53
23.68
20.07
12.65
2.21
-9.74
-21.26
-30.19
-34.65
-33.39
-26.25
-14.34
0.08
14.10
24.91
30.53
30.27
24.78
15.68
4.99
-5.36
-13.98
-20.13
-23.75
-25.27
-25.39
-24.85
-24.33
-24.30
-24.99
-26.40
-28.34
-30.50
-32.57
-34.21
-35.18
-35.31
-34.40
-32.25
-28.64
-23.46
-16.84
-9.26
-1.53
5.39
10.71
13.99
15.26
15.01
13.90
12.54
11.30
10.26
9.30
8.27
7.10
5.75
4.16
2.21
-0.30
-3.54
-7.46
-11.70
-15.61
-18.37
-19.16
-17.40
-12.89
-5.97
2.61
11.73
20.28
27.32
32.33
35.26
36.35
35.99
34.50
32.09
28.90
25.17
21.17
17.32
13.93
11.16
8.97
7.06
4.99
2.25
-1.76
-7.63
-15.80
-26.31
-38.52
-50.96
-61.43
-67.55
-67.44
-60.36
-46.96
-29.06
-9.10
10.52
28.00
42.37
53.40
61.42
66.99
70.68
72.87
73.74
73.30
71.55
68.55
64.45
59.40
53.51
46.87
39.60
31.96
24.31
16.94
9.89
2.99
-3.95
-10.65
-16.11
-18.65
-16.39
-8.13
6.03
24.38
43.96
61.39
73.87
79.92
79.63
74.48
66.73
58.85
53.06
50.90
53.10
59.41
68.50
78.13
85.52
88.04
83.87
72.50
54.93
33.36
10.68
-10.24
-27.03
-38.31
-43.91
-44.84
-43.05
-40.87
-40.37
-42.90
-48.68
-56.97
-66.27
-74.83
-81.14
-84.24
-83.87
-80.48
-75.05
-68.86
-63.23
-59.16
-57.31
-57.79
-60.17
-63.63
-67.14
-69.90
-71.47
-71.95
-71.61
-70.51
-68.22
-63.88
-56.64
-46.24
-33.37
-19.60
-6.80
3.44
10.31
13.86
14.62
13.26
10.41
6.66
2.72
-0.56
-2.34
-2.15
-0.06
3.28
6.86
9.70
11.09
10.67
8.37
4.30
-1.35
-8.20
-15.53
-22.25
-27.02
-28.65
-26.53
-20.92
-12.90
-4.06
4.05
10.24
13.95
15.14
13.96
10.60
5.19
-2.13
-10.97
-20.68
-30.24
-38.59
-44.73
-47.99
-48.19
-45.56
-40.70
-34.49
-27.91
-21.85
-16.85
-12.87
-9.21
-4.68
1.93
11.22
22.83
35.44
47.21
56.52
62.55
65.43
66.05
65.48
64.51
63.32
61.56
58.57
53.67
46.44
36.76
24.96
11.93
-0.96
-12.00
-19.55
-22.58
-21.05
-16.01
-9.41
-3.48
-0.07
-0.10
-3.35
-8.63
-14.15
-18.20
-19.56
-17.80
-13.41
-7.46
-1.37
3.55
6.36
6.62
4.44
0.35
-4.88
-10.44
-15.59
-19.83
-22.95
-24.95
-26.04
-26.51
-26.70
-26.95
-27.54
-28.56
-29.91
-31.12
-31.49
-30.27
-26.89
-21.22
-13.66
-5.10
3.38
10.76
16.41
20.06
21.79
21.82
20.49
18.20
15.47
12.91
11.05
10.18
10.27
10.94
11.59
11.72
11.06
9.62
7.70
5.64
3.76
2.36
1.75
2.32
4.57
8.90
15.40
23.71
32.95
42.03
49.82
55.56
58.95
60.12
59.38
57.10
53.64
49.38
44.87
40.88
38.21
37.42
38.53
40.84
42.98
43.17
39.68
31.29
17.69
-0.41
-21.29
-42.53
-61.36
-75.12
-81.71
-80.01
-70.18
-53.58
-32.49
-9.49
13.10
33.68
51.45
66.29
78.31
87.64
94.24
98.01
98.95
97.20
93.09
86.89
78.81
68.93
57.37
44.33
30.26
15.86
1.99
-10.45
-20.72
-28.23
-32.67
-33.94
-32.04
-26.94
-18.53
-6.63
8.77
27.19
47.36
67.14
83.73
94.27
96.68
90.33
76.44
57.87
38.40
21.55
9.62
3.09
0.68
0.11
-1.11
-4.90
-12.25
-23.08
-36.46
-50.80
-64.01
-74.00
-79.11
-78.73
-73.43
-64.94
-55.52
-47.23
-41.32
-38.06
-36.91
-36.94
-37.30
-37.46
-37.44
-37.70
-39.05
-42.29
-47.82
-55.38
-63.91
-71.88
-77.87
-81.14
-81.87
-80.87
-79.03
-76.59
-72.93
-66.84
-57.27
-43.99
-27.97
-10.99
5.04
18.68
29.25
36.65
40.98
42.43
41.35
38.44
34.73
31.31
28.85
27.41
26.52
25.50
23.92
21.65
18.71
14.99
10.16
3.91
-3.67
-11.82
-19.27
-24.65
-27.00
-26.10
-22.53
-17.39
-11.98
-7.40
-4.29
-2.80
-2.66
-3.43
-4.77
-6.65
-9.37
-13.32
-18.84
-25.93
-34.14
-42.68
-50.58
-56.82
-60.51
-61.06
-58.36
-52.91
-45.77
-38.22
-31.17
-24.71
-18.00
-9.65
1.50
15.68
31.78
47.75
61.20
70.27
74.12
73.01
68.02
60.59
52.21
44.22
37.66
33.27
31.35
31.72
33.85
36.88
40.00
42.75
45.21
47.99
52.00
57.91
65.75
74.67
83.19
89.62
92.79
92.42
89.18
84.36
79.28
74.77
70.83
66.80
61.57
54.15
43.94
30.91
15.54
-1.44
-19.26
-37.13
-54.26
-69.80
-82.98
-93.29
-100.72
-105.86
-109.78
-113.63
-118.14
-123.24
-127.90
-130.46
-129.06
-122.35
-110.02
-93.02
-73.40
-53.76
-36.53
-23.27
-14.44
-9.50
-7.34
-6.90
-7.52
-8.91
-10.97
-13.38
-15.51
-16.54
-15.88
-13.47
-9.89
-6.17
-3.44
-2.51
-3.79
-7.17
-12.13
-17.77
-22.88
-26.17
-26.50
-23.28
-16.66
-7.52
2.94
13.46
23.12
31.28
37.57
41.67
43.35
42.48
39.21
33.94
27.25
19.76
12.01
4.51
-2.23
-7.75
-11.75
-14.30
-15.94
-17.54
-20.04
-23.92
-28.94
-34.04
-37.65
-38.29
-35.19
-28.65
-20.06
-11.36
-4.52
-0.81
-0.51
-2.93
-6.74
-10.49
-13.00
-13.58
-12.13
-8.94
-4.33
1.51
8.66
17.30
27.31
37.99
47.90
55.14
57.88
54.95
46.29
33.08
17.37
1.67
-11.69
-20.92
-25.05
-23.95
-18.29
-9.39
1.08
11.37
19.95
25.65
27.86
26.55
22.34
16.45
10.51
6.32
5.34
8.21
14.40
22.14
28.82
31.82
29.25
20.65
7.11
-8.99
-24.70
-37.15
-44.14
-44.53
-38.40
-27.05
-12.82
1.39
12.69
18.95
19.35
14.55
6.34
-2.99
-11.45
-17.86
-21.94
-24.22
-25.54
-26.62
-27.77
-28.98
-30.02
-30.70
-31.05
-31.30
-31.80
-32.80
-34.25
-35.74
-36.50
-35.65
-32.40
-26.33
-17.51
-6.52
5.69
18.00
29.29
38.58
45.11
48.32
48.04
44.58
38.79
32.06
25.96
21.77
20.09
20.57
22.11
23.37
23.30
21.53
18.34
14.44
10.49
7.07
4.62
3.66
4.84
8.71
15.44
24.49
34.69
44.55
52.84
58.89
62.69
64.54
64.75
63.43
60.57
56.23
50.79
44.85
39.02
33.65
28.59
23.21
16.61
7.92
-3.28
-16.68
-31.05
-44.24
-53.58
-56.41
-50.86
-36.32
-13.60
15.36
48.09
82.02
114.78
144.12
167.83
183.82
190.50
187.28
174.90
155.25
130.93
104.50
77.96
52.47
28.57
6.42
-13.81
-31.91
-47.64
-61.00
-72.35
-82.28
-91.27
-99.08
-104.49
-105.43
-99.74
-86.37
-66.14
-41.83
-17.35
3.63
18.82
27.57
30.47
28.45
22.33
12.88
1.30
-10.47
-20.02
-25.19
-25.08
-20.51
-13.87
-8.23
-6.39
-10.09
-19.58
-33.85
-50.78
-67.74
-82.03
-91.51
-95.01
-92.67
-85.84
-76.55
-66.78
-57.88
-50.25
-43.62
-37.54
-31.87
-26.95
-23.42
-21.72
-21.86
-23.32
-25.40
-27.54
-29.52
-31.40
-33.35
-35.45
-37.69
-40.07
-42.61
-45.27
-47.70
-49.09
-48.36
-44.53
-37.25
-27.09
-15.39
-3.75
6.46
14.51
20.20
23.65
25.03
24.45
22.21
18.86
15.31
12.52
11.16
11.37
12.65
14.11
14.83
14.10
11.57
7.32
1.66
-4.77
-11.07
-16.11
-18.61
-17.51
-12.26
-3.15
8.69
21.56
33.61
43.34
49.79
52.53
51.45
46.51
37.70
25.21
9.67
-7.56
-24.43
-38.57
-47.82
-50.96
-48.05
-40.42
-30.08
-19.05
-8.69
0.67
9.47
18.54
28.48
39.31
50.42
60.70
68.98
74.34
76.29
74.79
70.10
62.70
53.15
42.11
30.47
19.26
9.62
2.60
-1.12
-1.46
1.05
5.40
10.51
15.62
20.56
25.69
31.58
38.58
46.51
54.56
61.49
65.99
67.04
64.20
57.70
48.47
37.90
27.64
19.08
13.14
9.94
8.85
8.70
8.11
5.81
0.88
-7.01
-17.59
-29.95
-42.73
-54.59
-64.60
-72.56
-79.03
-85.03
-91.49
-98.76
-106.27
-112.55
-115.65
-113.73
-105.70
-91.69
-73.21
-52.90
-33.79
-18.42
-8.20
-3.05
-1.83
-2.93
-4.98
-7.14
-9.10
-10.73
-11.89
-12.31
-11.85
-10.61
-9.09
-7.99
-7.89
-9.10
-11.53
-14.77
-18.15
-20.83
-21.86
-20.45
-16.14
-9.04
0.19
10.60
21.31
31.76
41.59
50.50
57.94
63.13
65.29
64.13
60.00
53.92
47.25
41.19
36.40
32.97
30.51
28.40
26.13
23.30
19.73
15.47
10.74
6.09
2.31
0.30
0.78
3.90
8.95
14.53
18.93
20.77
19.48
15.33
9.18
1.95
-5.70
-13.22
-19.97
-24.92
-26.83
-24.75
-18.47
-8.70
3.14
15.54
27.40
38.18
47.67
55.60
61.65
65.66
68.09
70.16
73.46
79.09
86.85
94.93
100.49
100.77
94.22
81.20
63.77
44.80
26.94
11.76
-0.44
-10.26
-18.56
-25.77
-31.58
-34.90
-34.25
-28.36
-16.76
-0.18
19.31
38.45
53.47
61.02
59.21
48.34
30.99
11.32
-6.17
-17.99
-22.60
-20.53
-13.86
-5.32
2.54
7.69
8.73
4.81
-4.27
-17.94
-34.64
-52.10
-67.81
-79.72
-86.93
-89.88
-90.22
-90.05
-91.19
-94.46
-99.37
-104.20
-106.62
-104.40
-96.30
-82.56
-64.98
-46.50
-30.23
-18.55
-12.38
-11.10
-12.93
-15.79
-18.12
-19.22
-19.27
-18.82
-18.32
-17.83
-17.04
-15.68
-13.79
-11.80
-10.37
-10.15
-11.49
-14.45
-18.79
-24.01
-29.37
-33.75
-35.77
-33.92
-27.12
-15.25
0.57
18.12
34.65
47.73
55.85
58.63
56.64
50.89
42.46
32.39
21.62
11.15
1.98
-5.04
-9.55
-11.81
-12.72
-13.53
-15.43
-19.19
-24.91
-31.84
-38.59
-43.50
-45.13
-42.79
-36.74
-28.09
-18.40
-9.06
-1.07
5.10
9.28
11.53
12.03
11.22
9.92
9.26
10.47
14.57
22.09
32.92
46.44
61.68
77.41
92.26
104.72
113.41
117.30
116.13
110.66
102.55
93.96
86.90
82.67
81.48
82.63
84.90
87.03
88.05
87.16
83.51
76.22
64.63
48.99
31.06
14.13
2.26
-1.16
5.07
19.11
36.39
50.94
57.28
52.10
35.12
8.82
-22.40
-53.47
-79.72
-97.63
-105.22
-102.14
-89.66
-70.42
-48.06
-26.49
-9.23
1.22
3.76
-1.31
-12.53
-27.73
-44.42
-60.10
-72.60
-80.34
-82.60
-79.73
-73.15
-65.10
-58.12
-54.48
-55.63
-61.86
-72.23
-84.70
-96.49
-104.62
-106.60
-101.08
-88.25
-69.78
-48.52
-27.58
-9.67
3.47
11.20
13.77
11.99
6.92
-0.25
-8.17
-15.34
-20.27
-21.72
-19.14
-12.94
-4.49
4.11
10.69
13.60
12.38
7.90
2.20
-2.13
-2.71
1.84
11.45
24.68
39.31
53.07
64.27
72.15
76.74
78.41
77.50
74.13
68.24
59.80
48.97
36.16
21.85
6.55
-9.29
-25.31
-41.27
-56.96
-72.14
-86.40
-98.93
-108.57
-113.78
-113.04
-105.20
-89.91
-67.91
-41.00
-11.77
17.03
43.05
64.67
81.03
91.79
96.75
95.70
88.60
75.90
58.88
39.69
20.99
5.26
-5.87
-11.91
-13.51
-12.20
-9.87
-8.40
-9.16
-12.46
-17.14
-20.41
-18.43
-7.45
14.53
46.46
83.81
119.52
146.01
157.57
152.17
131.90
102.05
69.16
38.99
15.15
-1.25
-11.08
-16.17
-18.38
-19.25
-19.96
-21.56
-25.05
-31.34
-40.81
-52.95
-66.36
-78.91
-88.40
-93.12
-92.40
-86.69
-77.32
-65.92
-53.88
-42.04
-30.67
-19.90
-10.08
-2.06
2.92
3.73
-0.24
-8.61
-19.99
-32.29
-43.30
-51.25
-55.25
-55.54
-53.26
-50.20
-48.16
-48.53
-51.75
-57.18
-63.22
-67.67
-68.45
-64.10
-54.25
-39.73
-22.22
-3.72
13.82
28.80
40.06
46.85
48.96
46.74
41.21
33.90
26.35
19.79
14.75
11.12
8.26
5.39
1.79
-3.09
-9.64
-17.95
-27.83
-38.49
-48.58
-56.43
-60.39
-59.38
-53.23
-42.79
-29.69
-15.96
-3.48
6.30
12.51
14.78
13.04
7.42
-1.71
-13.62
-27.08
-40.21
-50.86
-57.03
-57.53
-52.42
-43.01
-31.45
-19.92
-10.10
-2.66
2.73
7.15
12.06
18.81
28.22
40.24
53.87
67.31
78.45
85.52
87.60
84.83
78.24
69.36
59.79
50.98
44.04
39.69
38.16
39.07
41.56
44.55
47.21
49.24
51.09
53.67
57.98
64.63
73.49
83.59
93.20
100.19
102.59
99.25
90.32
77.43
63.15
50.27
40.76
35.09
32.26
30.34
27.26
21.59
12.85
1.41
-11.85
-25.83
-39.47
-51.85
-62.24
-70.31
-76.15
-80.43
-84.24
-88.69
-94.32
-100.68
-106.07
-107.95
-103.84
-92.40
-74.20
-51.84
-29.25
-10.31
2.35
8.14
8.33
5.20
1.02
-2.77
-5.72
-8.03
-10.05
-11.83
-13.09
-13.48
-12.93
-11.70
-10.41
-9.78
-10.35
-12.38
-15.82
-20.40
-25.61
-30.60
-34.10
-34.57
-30.47
-20.86
-5.95
12.73
32.55
50.56
64.22
72.02
73.61
69.44
60.39
47.56
32.22
15.92
0.47
-12.41
-21.57
-26.82
-29.00
-29.74
-30.89
-33.94
-39.53
-47.25
-55.69
-62.83
-66.65
-65.77
-60.03
-50.52
-39.23
-28.41
-19.89
-14.69
-12.90
-13.91
-16.61
-19.73
-22.06
-22.66
-20.97
-16.79
-10.17
-1.25
9.78
22.54
36.19
49.22
59.60
65.20
64.52
57.30
44.92
29.98
15.72
5.00
-0.43
-0.19
4.81
13.00
22.80
32.92
42.50
50.86
57.31
61.13
61.83
59.53
55.28
50.91
48.58
50.03
55.95
65.55
76.61
86.01
90.56
87.84
76.86
58.46
35.17
10.73
-10.81
-26.06
-33.08
-31.77
-23.69
-11.45
2.02
14.10
22.92
27.36
26.90
21.55
11.80
-1.35
-16.39
-31.48
-44.74
-54.69
-60.55
-62.45
-61.27
-58.37
-55.20
-53.01
-52.58
-54.31
-57.96
-62.76
-67.45
-70.37
-69.91
-64.88
-54.94
-40.80
-24.09
-6.93
8.59
20.87
29.09
33.10
33.38
30.81
26.52
21.70
17.47
14.54
13.07
12.48
11.67
9.39
4.81
-2.03
-10.00
-17.24
-21.73
-21.96
-17.39
-8.63
2.86
15.04
25.86
33.60
37.16
36.28
31.47
23.87
14.91
5.86
-2.47
-9.80
-16.22
-21.88
-26.84
-30.97
-34.11
-36.32
-38.01
-39.89
-42.75
-47.16
-53.24
-60.54
-68.06
-74.48
-78.38
-78.39
-73.46
-63.01
-47.15
-26.77
-3.46
20.91
44.53
66.05
84.75
100.37
112.83
122.05
127.88
130.29
129.66
126.80
122.74
118.30
113.63
108.01
100.13
88.68
73.07
53.97
33.44
14.48
0.04
-7.95
-9.23
-5.25
1.60
9.00
15.72
21.99
29.10
38.41
50.20
63.17
74.57
81.22
80.73
72.42
57.61
39.08
20.13
3.47
-9.36
-18.21
-23.90
-27.75
-31.06
-34.74
-39.14
-43.96
-48.44
-51.51
-52.19
-49.88
-44.58
-36.93
-27.99
-19.00
-11.13
-5.54
-3.13
-4.58
-10.03
-18.79
-29.30
-39.32
-46.66
-49.79
-48.47
-43.81
-37.91
-33.18
-31.74
-34.86
-42.74
-54.44
-67.91
-80.26
-88.33
-89.44
-82.30
-67.47
-47.30
-25.10
-4.11
13.46
26.75
35.93
41.66
44.44
44.51
41.98
37.19
30.84
23.86
17.09
11.11
6.18
2.52
0.37
-0.14
0.67
1.83
1.80
-0.86
-6.72
-14.99
-23.59
-30.03
-32.47
-30.52
-25.18
-18.35
-11.86
-6.85
-3.74
-2.53
-3.21
-6.00
-11.17
-18.71
-28.10
-38.31
-48.01
-56.05
-61.77
-65.23
-67.08
-68.40
-70.35
-73.88
-79.57
-87.41
-96.52
-105.16
-110.84
-110.86
-103.12
-86.98
-63.57
-35.55
-6.37
20.79
43.68
61.30
73.45
80.40
82.53
80.37
74.81
67.18
59.05
51.86
46.39
42.63
39.79
36.70
32.31
26.04
17.92
8.51
-1.26
-10.16
-16.78
-19.64
-17.36
-9.05
5.40
25.12
48.43
73.07
96.57
116.57
131.01
138.36
137.82
129.67
115.35
97.26
78.23
60.78
46.54
35.99
28.65
23.43
19.08
14.39
8.37
0.23
-10.35
-23.01
-36.61
-49.23
-58.62
-62.93
-61.30
-54.22
-43.49
-31.55
-20.72
-12.51
-7.34
-4.69
-3.62
-3.37
-3.61
-4.52
-6.56
-10.12
-15.38
-22.16
-29.97
-38.12
-45.85
-52.55
-58.01
-62.46
-66.47
-70.56
-74.63
-77.70
-78.07
-73.94
-64.24
-49.27
-30.69
-11.04
7.19
22.21
33.17
39.96
42.89
42.39
39.07
33.95
28.41
23.93
21.60
21.77
23.87
26.72
28.92
29.34
27.40
22.97
16.37
8.17
-0.71
-9.02
-15.25
-17.94
-16.09
-9.63
0.51
12.60
24.66
34.96
42.40
46.45
46.99
44.11
38.02
29.18
18.39
6.67
-4.90
-15.25
-23.37
-28.23
-29.01
-25.31
-17.47
-6.62
5.67
17.95
29.40
39.95
50.05
60.02
69.69
78.38
85.22
89.61
91.43
90.97
88.60
84.59
78.90
71.42
62.07
51.06
38.90
26.34
14.20
3.00
-7.09
-16.25
-24.75
-32.63
-39.55
-44.74
-47.33
-46.77
-43.25
-37.75
-31.94
-27.59
-25.98
-27.47
-31.36
-36.15
-40.02
-41.53
-39.96
-35.65
-29.72
-23.71
-19.15
-17.09
-17.85
-21.06
-25.91
-31.37
-36.58
-40.92
-44.06
-45.98
-46.88
-47.25
-47.72
-48.98
-51.30
-54.24
-56.53
-56.31
-51.90
-42.57
-29.14
-13.93
0.00
9.93
14.40
13.56
8.85
2.17
-4.88
-11.50
-17.69
-23.70
-29.63
-35.19
-39.74
-42.65
-43.61
-42.85
-41.17
-39.61
-39.22
-40.65
-43.96
-48.52
-53.11
-56.16
-56.03
-51.45
-41.80
-27.41
-9.55
9.75
28.15
43.55
54.48
60.29
61.10
57.55
50.53
41.08
30.34
19.60
10.14
3.05
-1.08
-2.43
-1.89
-0.94
-1.22
-4.06
-10.15
-19.27
-30.22
-41.11
-49.82
-54.55
-54.40
-49.58
-41.37
-31.62
-22.23
-14.49
-8.82
-4.92
-1.99
0.76
3.94
7.89
12.85
19.01
26.62
35.78
46.27
57.34
67.64
75.42
78.83
76.53
68.20
55.00
39.40
24.79
14.46
10.65
13.85
22.88
35.43
49.01
61.66
72.09
79.42
82.90
81.79
75.79
65.58
53.03
40.99
32.40
29.20
31.59
37.86
44.94
49.42
48.60
41.27
27.80
9.93
-9.83
-28.70
-44.15
-54.16
-57.53
-54.04
-44.54
-30.96
-15.87
-1.94
8.74
15.05
16.92
15.01
10.30
3.77
-3.80
-11.75
-19.48
-26.43
-32.03
-35.79
-37.35
-36.67
-34.10
-30.53
-27.29
-25.92
-27.65
-32.81
-40.50
-48.66
-54.62
-56.06
-51.76
-42.02
-28.50
-13.52
0.68
12.53
21.26
26.70
28.97
28.25
24.92
19.69
13.68
8.30
4.74
3.57
4.42
6.20
7.60
7.68
6.37
4.37
2.83
2.85
5.08
9.61
16.03
23.71
31.83
39.52
45.94
50.29
51.98
50.75
46.71
40.23
31.91
22.43
12.53
2.98
-5.52
-12.38
-17.40
-20.75
-23.15
-25.66
-29.49
-35.67
-44.71
-56.32
-69.24
-81.49
-90.83
-95.46
-94.39
-87.63
-75.91
-60.29
-41.93
-21.97
-1.60
17.80
34.87
48.52
58.22
64.12
66.98
67.73
67.14
65.63
63.20
59.56
54.31
47.12
37.79
26.31
12.93
-1.72
-16.54
-29.86
-39.64
-44.03
-42.00
-33.90
-21.43
-6.98
7.35
20.69
33.44
46.78
61.35
76.29
88.94
95.62
93.16
80.36
58.71
32.04
5.13
-17.92
-34.87
-45.61
-51.52
-54.49
-55.99
-56.75
-56.80
-55.96
-54.07
-51.16
-47.33
-42.61
-37.01
-30.58
-23.57
-16.62
-10.58
-6.35
-4.55
-5.20
-7.74
-11.20
-14.43
-16.54
-17.15
-16.50
-15.47
-15.32
-17.40
-22.71
-31.58
-43.39
-56.62
-69.13
-78.52
-82.76
-80.58
-71.90
-57.86
-40.63
-22.87
-7.01
5.33
13.68
18.43
20.47
20.62
19.42
17.08
13.84
10.07
6.40
3.58
2.21
2.62
4.78
8.18
11.96
14.96
16.07
14.64
10.91
6.00
1.76
0.09
2.26
8.47
17.92
29.13
40.55
50.98
59.65
66.09
69.84
70.34
67.07
59.85
49.18
36.32
22.96
10.67
0.40
-7.88
-15.00
-22.23
-30.72
-41.05
-52.96
-65.30
-76.07
-82.86
-83.33
-75.99
-60.65
-38.58
-12.22
15.59
42.34
66.27
86.36
101.97
112.48
117.23
115.84
108.55
96.46
81.41
65.45
50.25
36.74
25.08
14.81
5.32
-3.84
-12.82
-21.41
-29.11
-35.29
-39.20
-40.24
-37.92
-31.83
-21.68
-7.24
11.36
33.19
56.03
76.45
90.20
93.62
84.82
64.63
36.54
5.76
-22.44
-44.05
-57.18
-61.94
-59.95
-53.51
-45.10
-37.06
-31.34
-29.26
-31.21
-36.33
-42.68
-47.69
-49.10
-45.66
-37.62
-26.47
-14.35
-3.16
5.91
12.51
16.87
19.44
20.47
19.97
17.66
13.27
6.67
-1.89
-11.70
-21.72
-30.80
-38.07
-43.18
-46.37
-48.26
-49.36
-49.65
-48.54
-45.00
-38.24
-28.12
-15.43
-1.64
11.61
23.04
32.08
38.74
43.16
45.25
44.56
40.60
33.35
23.78
13.77
5.61
1.09
0.78
3.83
8.28
11.91
13.03
10.89
5.64
-1.90
-10.58
-18.96
-25.46
-28.41
-26.45
-19.00
-6.64
8.86
25.02
39.20
49.40
54.49
54.37
49.57
41.04
29.73
16.61
2.70
-10.93
-23.16
-33.21
-40.87
-46.65
-51.47
-56.21
-61.21
-66.05
-69.72
-70.99
-68.69
-61.93
-50.15
-33.24
-11.72
12.98
38.46
61.64
79.46
89.66
91.41
85.41
73.56
58.31
42.08
26.77
13.51
2.75
-5.56
-11.75
-16.18
-19.31
-21.72
-24.30
-28.04
-33.74
-41.35
-49.56
-55.79
-56.75
-49.62
-33.31
-9.33
18.26
43.89
62.31
70.33
67.75
57.23
42.91
28.74
17.15
8.66
2.40
-2.84
-7.78
-12.34
-16.01
-18.48
-20.08
-21.77
-24.75
-29.86
-37.22
-46.18
-55.56
-63.90
-69.79
-71.97
-69.48
-61.86
-49.28
-32.73
-13.93
4.96
21.69
34.38
41.71
43.07
38.58
29.12
16.28
2.11
-11.18
-21.76
-28.58
-31.58
-31.53
-29.70
-27.45
-25.93
-26.05
-28.32
-32.83
-39.03
-45.63
-50.75
-52.45
-49.36
-41.30
-29.35
-15.44
-1.58
10.85
21.36
30.11
37.28
42.70
45.76
45.77
42.56
36.65
29.23
21.68
15.03
9.68
5.49
2.02
-1.10
-4.09
-7.15
-10.44
-14.11
-18.10
-21.75
-23.86
-22.98
-18.08
-9.15
2.59
15.05
25.94
33.48
36.79
35.79
30.82
22.47
11.52
-0.87
-13.03
-23.01
-28.98
-29.75
-25.01
-15.22
-1.39
15.08
32.44
48.42
60.47
66.41
65.25
57.93
47.26
37.01
30.53
29.37
32.85
38.53
43.47
45.47
43.85
39.36
33.48
27.49
21.97
16.62
10.72
3.78
-4.02
-11.65
-17.58
-20.17
-18.31
-11.85
-1.81
9.61
19.40
24.44
22.43
12.87
-2.56
-20.31
-36.02
-45.93
-48.09
-42.77
-32.06
-18.86
-5.93
4.72
11.80
14.56
12.55
5.70
-5.45
-19.53
-34.45
-47.80
-57.67
-63.16
-64.76
-64.05
-63.12
-63.73
-66.74
-71.80
-77.60
-82.35
-84.41
-82.75
-77.19
-68.32
-57.21
-45.07
-32.99
-21.77
-11.99
-4.14
1.31
3.95
3.56
0.41
-4.72
-10.63
-15.98
-19.71
-21.33
-21.05
-19.66
-18.30
-18.21
-20.36
-25.15
-32.15
-39.93
-46.23
-48.48
-44.69
-34.13
-17.82
1.84
21.84
39.57
53.43
62.97
68.31
69.68
66.94
59.93
48.88
34.86
19.83
5.99
-4.94
-12.31
-16.69
-19.45
-22.13
-25.96
-31.69
-39.49
-49.02
-59.27
-68.56
-74.80
-76.16
-71.82
-62.39
-49.76
-36.16
-23.28
-11.69
-1.05
9.24
19.33
28.74
36.72
42.73
46.96
50.17
53.30
56.92
60.93
64.58
66.80
66.51
62.93
55.79
45.34
32.51
18.89
6.63
-1.84
-4.42
0.08
11.45
28.04
47.11
65.70
81.51
93.52
102.11
108.65
114.68
121.20
128.07
133.94
136.61
133.87
124.22
107.62
85.54
60.59
35.61
12.78
-6.97
-23.81
-38.28
-50.48
-59.59
-64.14
-62.91
-55.87
-44.73
-32.47
-22.32
-16.48
-15.48
-18.26
-23.07
-28.46
-33.76
-39.08
-44.64
-50.22
-54.96
-57.63
-57.27
-53.75
-48.09
-42.15
-38.24
-38.21
-42.98
-52.12
-63.97
-75.82
-84.71
-87.97
-83.97
-72.53
-54.91
-33.46
-10.94
10.06
27.69
40.89
49.25
52.80
51.82
46.79
38.67
28.80
18.91
10.71
5.44
3.53
4.48
7.11
9.88
11.45
10.93
8.04
3.05
-3.29
-9.89
-15.35
-18.23
-17.34
-12.08
-2.72
9.57
23.00
35.65
45.86
52.54
55.22
53.98
49.26
41.84
32.71
23.03
13.89
6.14
0.06
-4.65
-8.83
-13.59
-20.00
-28.77
-39.95
-52.64
-64.88
-73.85
-76.52
-70.46
-54.67
-30.00
1.22
35.82
70.76
103.71
133.09
157.77
176.65
188.64
192.85
189.20
178.71
163.44
145.98
128.78
113.48
100.59
89.64
79.52
69.02
57.12
43.22
27.27
9.87
-7.45
-22.32
-31.83
-33.30
-25.22
-8.03
15.67
41.55
64.53
80.00
84.96
78.58
62.30
39.36
13.85
-10.20
-29.69
-42.93
-49.83
-51.54
-50.00
-47.44
-46.02
-47.43
-52.76
-62.16
-74.79
-88.83
-101.73
-110.90
-114.32
-111.23
-102.34
-89.58
-75.40
-62.02
-50.79
-42.10
-35.74
-31.33
-28.68
-27.82
-28.77
-31.16
-34.15
-36.58
-37.49
-36.68
-34.90
-33.75
-35.13
-40.52
-50.34
-63.69
-78.33
-91.20
-99.11
-99.52
-91.30
-75.05
-52.96
-28.18
-3.99
17.05
33.43
44.75
51.34
53.82
52.88
49.23
43.67
37.21
31.00
26.12
23.41
23.18
25.18
28.62
32.24
34.69
34.79
31.92
26.37
19.38
12.92
9.13
9.70
15.32
25.44
38.55
52.56
65.47
75.70
82.38
85.20
84.39
80.44
74.06
65.91
56.54
46.24
35.13
23.22
10.41
-3.55
-19.22
-37.31
-58.18
-81.20
-104.21
-123.69
-135.59
-136.64
-125.43
-102.84
-71.58
-35.26
2.48
38.55
70.45
96.23
114.55
124.92
127.96
125.47
120.02
114.21
109.85
107.43
106.08
104.00
99.31
90.79
78.21
62.36
44.55
26.34
9.36
-4.52
-13.22
-14.74
-8.02
6.23
25.09
44.01
58.10
63.84
60.22
48.88
33.15
16.56
1.54
-11.08
-21.75
-31.37
-40.46
-48.87
-55.99
-61.31
-64.94
-67.69
-70.90
-75.84
-83.39
-93.59
-105.74
-118.35
-129.39
-136.59
-137.93
-132.18
-119.38
-100.98
-79.53
-57.98
-38.94
-24.17
-14.46
-9.85
-9.91
-13.98
-21.03
-29.67
-38.18
-44.76
-48.02
-47.47
-43.68
-38.09
-32.60
-28.93
-28.11
-30.22
-34.38
-39.07
-42.46
-42.91
-39.37
-31.63
-20.43
-7.22
6.22
18.32
28.03
34.97
39.24
41.09
40.78
38.49
34.54
29.54
24.30
19.72
16.43
14.58
13.76
13.15
11.76
8.74
3.69
-3.07
-10.45
-16.76
-20.14
-19.17
-13.28
-2.99
10.29
24.68
38.33
49.76
57.93
62.17
62.00
57.03
47.14
32.80
15.47
-2.36
-17.55
-27.18
-29.52
-24.63
-14.24
-1.00
12.56
24.85
35.32
44.09
51.47
57.61
62.58
66.69
70.60
75.21
81.15
88.39
96.10
102.87
107.13
107.71
104.17
96.85
86.68
74.88
62.55
50.51
39.28
29.15
20.48
13.85
9.96
9.49
12.61
18.69
26.14
32.73
36.19
35.04
29.28
20.47
11.28
4.41
1.73
3.53
8.72
15.39
21.63
26.05
27.98
27.16
23.46
16.71
6.86
-5.67
-19.87
-34.15
-46.84
-56.60
-63.00
-66.50
-68.35
-70.11
-73.16
-78.33
-85.50
-93.58
-100.56
-104.01
-101.70
-92.54
-77.06
-57.61
-37.67
-20.82
-9.56
-4.67
-5.26
-9.44
-15.25
-21.26
-26.78
-31.63
-35.68
-38.62
-39.99
-39.47
-37.13
-33.65
-30.13
-27.75
-27.43
-29.53
-33.85
-39.57
-45.40
-49.62
-50.42
-46.18
-36.08
-20.53
-1.23
19.23
38.09
53.26
63.78
69.74
71.79
70.68
66.97
61.04
53.51
45.33
37.73
31.91
28.56
27.53
27.92
28.43
27.83
25.24
20.22
12.61
2.51
-9.62
-22.68
-34.86
-44.02
-48.50
-47.90
-43.38
-37.20
-31.59
-27.70
-25.26
-23.03
-19.72
-14.80
-8.61
-1.93
4.66
11.22
18.07
25.30
32.31
37.80
40.28
38.72
32.89
23.33
10.96
-3.40
-19.08
-35.37
-51.16
-64.67
-73.72
-76.49
-72.27
-61.96
-47.85
-32.88
-19.60
-9.52
-2.88
1.02
3.28
4.87
6.39
7.92
9.08
9.09
7.07
2.38
-4.99
-14.26
-24.06
-32.86
-39.68
-44.41
-47.73
-50.67
-53.82
-56.86
-58.47
-56.98
-51.23
-41.35
-28.93
-16.54
-6.68
-0.89
0.83
-0.35
-2.82
-5.35
-7.52
-9.58
-11.93
-14.65
-17.30
-19.28
-20.12
-19.86
-19.04
-18.46
-18.79
-20.38
-23.30
-27.38
-32.33
-37.63
-42.38
-45.31
-44.91
-39.98
-30.08
-15.91
0.81
17.78
32.84
44.44
51.94
55.51
55.84
53.82
50.26
45.73
40.60
35.15
29.69
24.71
20.82
18.57
18.16
19.34
21.40
23.43
24.56
24.10
21.66
17.23
11.35
5.17
0.38
-1.19
1.72
9.26
20.24
32.48
43.60
51.75
56.13
56.89
54.77
50.56
44.85
37.96
30.03
21.21
11.68
1.62
-8.69
-18.81
-27.93
-34.85
-38.22
-37.07
-31.30
-21.89
-10.54
1.11
12.35
23.72
36.68
52.70
72.28
94.46
117.03
137.33
153.00
162.48
165.05
160.68
149.78
133.22
112.41
89.30
66.16
45.08
27.55
14.12
4.43
-2.43
-7.46
-11.28
-13.92
-14.97
-13.83
-10.10
-3.77
4.64
14.17
23.59
31.57
36.95
38.95
37.45
33.09
27.13
21.05
16.06
12.65
10.47
8.55
5.71
1.00
-6.07
-15.42
-26.50
-38.41
-50.12
-60.64
-69.32
-75.98
-81.01
-85.14
-89.19
-93.64
-98.35
-102.46
-104.66
-103.51
-97.97
-87.93
-74.37
-59.24
-45.03
-33.95
-27.47
-25.88
-28.43
-33.66
-39.96
-46.02
-50.93
-54.19
-55.62
-55.17
-52.95
-49.25
-44.55
-39.44
-34.47
-30.15
-26.82
-24.74
-24.02
-24.55
-25.86
-26.99
-26.69
-23.67
-17.04
-6.69
6.70
21.82
37.12
51.28
63.29
72.55
78.66
81.34
80.48
76.19
68.93
59.54
49.11
38.75
29.30
21.13
14.05
7.54
0.93
-6.28
-14.26
-22.82
-31.43
-39.39
-45.91
-50.25
-51.87
-50.65
-46.95
-41.76
-36.32
-31.83
-28.87
-27.30
-26.32
-24.98
-22.66
-19.28
-15.18
-10.59
-5.30
1.35
9.98
20.51
31.73
41.30
46.54
45.39
37.13
22.78
4.78
-13.80
-29.97
-41.46
-47.09
-46.76
-41.36
-32.43
-21.88
-11.64
-3.36
1.80
3.30
1.15
-4.09
-11.46
-19.76
-27.72
-34.25
-38.73
-41.22
-42.42
-43.55
-46.02
-50.91
-58.77
-69.48
-82.27
-95.89
-108.74
-118.96
-124.61
-124.07
-116.46
-102.15
-82.88
-61.39
-40.75
-23.49
-11.04
-3.62
-0.55
-0.79
-3.39
-7.68
-13.15
-19.30
-25.51
-31.13
-35.68
-38.98
-41.21
-42.84
-44.50
-46.86
-50.56
-55.97
-63.00
-70.84
-77.92
-82.17
-81.66
-75.24
-63.13
-46.85
-28.81
-11.49
3.18
14.12
20.99
23.85
22.94
18.60
11.50
2.73
-6.15
-13.49
-18.14
-19.94
-19.82
-19.46
-20.57
-24.31
-30.93
-39.94
-50.39
-61.09
-70.64
-77.34
-79.28
-74.82
-63.26
-45.34
-23.29
-0.19
20.98
38.07
50.09
56.91
58.82
56.26
49.74
40.11
28.78
17.57
8.28
2.17
-0.44
-0.11
2.08
4.94
7.54
9.30
9.95
9.59
8.78
8.70
10.98
17.33
28.91
45.74
66.64
89.51
112.10
132.57
149.77
163.09
171.97
175.76
173.89
166.36
154.31
140.16
127.15
118.39
115.78
119.39
127.62
137.93
147.86
155.82
161.32
164.64
166.34
166.75
165.95
163.83
160.28
155.26
148.80
140.85
131.40
120.54
108.55
95.91
83.08
70.39
57.87
45.41
32.93
20.62
8.93
-1.62
-10.69
-18.25
-24.57
-30.11
-35.41
-41.11
-47.81
-55.96
-65.48
-75.47
-84.13
-89.21
-88.66
-81.47
-68.04
-50.07
-30.01
-10.36
6.91
20.50
29.80
34.74
35.77
33.72
29.71
24.86
20.08
15.95
12.60
9.91
7.68
5.76
4.09
2.71
1.59
0.53
-0.98
-3.55
-7.66
-13.20
-19.29
-24.34
-26.50
-24.31
-17.22
-5.77
8.53
23.68
37.63
48.72
55.95
59.03
58.27
54.34
48.00
39.92
30.61
20.58
10.44
0.98
-7.12
-13.49
-18.29
-22.05
-25.26
-28.08
-30.25
-31.39
-31.38
-30.57
-29.52
-28.65
-27.85
-26.49
-23.87
-19.72
-14.52
-9.26
-4.99
-2.33
-1.28
-1.46
-2.51
-4.38
-7.33
-11.53
-16.77
-22.29
-26.92
-29.56
-29.55
-26.96
-22.60
-17.67
-13.45
-10.97
-10.81
-12.91
-16.61
-20.74
-23.77
-24.31
-21.43
-15.00
-5.70
5.10
15.86
25.25
32.44
37.16
39.44
39.44
37.25
32.93
26.60
18.64
9.69
0.60
-7.83
-14.98
-20.58
-24.73
-27.77
-30.22
