1635840226.00
64.000000
-0.00
-0.00
-0.00
-0.00
-0.00
-0.00
-0.00
-0.00
-0.00
-0.00
0.00
0.01
0.01
-0.00
-0.03
-0.05
-0.05
0.00
0.13
0.36
0.66
1.01
1.37
1.72
2.06
2.40
2.79
3.24
3.80
4.42
5.06
5.66
6.20
6.68
7.15
7.68
8.31
9.14
10.09
11.04
11.88
12.56
13.14
13.76
14.65
15.96
17.91
20.32
22.90
25.38
27.58
29.57
31.68
34.32
37.81
42.54
48.15
54.10
59.83
64.97
69.58
74.14
79.34
85.71
93.76
103.00
112.62
121.73
129.77
136.75
143.30
150.75
157.77
166.64
177.95
191.79
206.97
220.57
228.25
225.36
208.53
176.87
132.76
80.05
23.07
-34.94
-92.44
-149.16
-205.23
-260.37
-313.74
-363.87
-409.83
-450.91
-486.50
-515.74
-537.23
-549.22
-549.96
-538.37
-514.21
-478.68
-433.88
-382.45
-327.01
-269.81
-212.59
-156.59
-102.85
-52.23
-5.72
35.82
71.73
101.71
125.93
144.87
159.25
169.77
177.06
181.51
183.40
182.97
180.48
176.29
170.80
164.43
157.51
150.30
142.93
135.48
127.99
120.51
113.08
105.80
98.73
91.92
85.41
79.20
73.33
67.79
62.59
57.75
53.28
49.17
45.43
42.04
39.01
36.32
33.97
31.96
30.29
28.94
27.92
27.20
26.79
26.65
26.80
27.23
27.92
28.84
30.00
31.32
32.73
34.12
35.34
36.19
36.47
35.96
34.49
31.91
28.18
23.35
17.50
10.89
3.83
-3.29
-10.07
-16.11
-21.10
-24.79
-27.07
-27.96
-27.60
-26.23
-24.15
-21.69
-19.13
-16.72
-14.60
-12.84
-11.39
-10.15
-9.03
-7.94
-6.80
-5.58
-4.27
-2.88
-1.46
-0.05
1.38
2.79
4.23
5.80
7.61
9.81
12.56
15.96
20.14
25.15
30.88
37.22
44.05
51.29
58.86
66.67
74.69
82.92
91.38
99.86
108.17
116.15
123.66
130.60
136.96
142.74
148.02
152.92
157.20
160.67
163.14
164.44
164.33
162.52
158.54
151.70
143.48
134.43
124.90
115.09
105.19
95.37
85.81
76.75
68.38
60.92
54.09
47.63
41.27
34.81
28.19
21.55
15.18
9.43
4.58
0.46
-3.28
-7.03
-11.12
-15.66
-20.46
-25.14
-29.36
-33.00
-36.49
-40.59
-46.07
-53.54
-63.13
-74.47
-86.94
-99.94
-113.22
-127.03
-141.83
-158.07
-175.96
-195.63
-217.31
-241.22
-267.21
-294.05
-319.12
-338.84
-349.92
-350.69
-341.97
-326.56
-307.92
-288.68
-270.01
-251.90
-234.23
-217.37
-202.17
-188.98
-176.79
-163.17
-145.25
-121.35
-92.16
-60.68
-31.18
-7.41
8.76
17.95
22.42
24.71
26.61
28.64
30.47
31.69
32.26
32.62
33.28
34.49
36.00
37.39
38.05
37.26
34.32
28.68
20.41
10.68
1.63
-4.35
-5.88
-3.52
0.34
2.48
0.16
-7.71
-20.43
-35.90
-51.54
-65.13
-75.26
-81.37
-83.48
-81.69
-75.86
-65.46
-49.74
-28.07
-0.37
32.47
68.46
104.80
138.25
166.07
186.55
199.40
205.85
208.11
208.50
208.62
208.75
207.98
204.87
198.11
186.98
171.51
152.18
129.94
106.19
82.95
62.67
47.55
38.51
34.55
32.61
28.68
19.42
3.69
-17.03
-39.43
-59.76
-75.26
-84.44
-86.61
-81.13
-67.14
-44.13
-12.92
23.64
61.04
94.45
120.56
138.84
151.31
161.04
170.07
177.96
181.97
179.23
169.25
155.61
145.35
146.37
163.87
197.72
242.22
288.22
326.53
350.84
359.06
352.91
336.19
313.02
286.68
259.26
231.95
205.60
181.15
159.61
141.66
127.27
115.32
103.94
91.30
76.36
59.40
41.74
25.23
11.36
0.55
-8.01
-16.09
-25.70
-38.43
-54.86
-74.43
-95.70
-116.96
-136.94
-155.29
-172.75
-190.87
-211.30
-235.10
-262.27
-291.65
-321.52
-350.26
-377.04
-402.16
-426.77
-452.55
-481.39
-515.30
-555.96
-603.89
-657.05
-710.11
-754.98
-782.92
-787.73
-768.19
-728.67
-677.28
-622.68
-571.14
-525.40
-485.30
-449.65
-417.67
-389.32
-364.69
-343.09
-322.85
-301.91
-278.67
-252.72
-224.68
-195.87
-167.31
-139.28
-111.33
-82.70
-52.97
-22.49
7.61
35.87
61.05
82.62
100.87
116.49
130.06
141.60
150.56
156.27
158.49
157.96
156.28
155.54
157.27
161.86
168.32
174.95
180.14
183.39
185.64
188.94
195.74
208.14
227.42
253.48
284.35
315.75
341.43
354.68
350.78
329.33
295.09
256.62
222.76
198.97
185.03
175.56
162.93
141.00
107.89
66.28
21.98
-18.70
-51.14
-73.48
-86.49
-92.52
-93.97
-92.01
-86.18
-74.81
-56.15
-29.37
4.95
45.38
90.49
139.25
190.72
242.92
292.17
333.27
361.19
373.14
370.03
356.22
337.55
318.91
302.48
287.65
272.38
254.98
235.23
214.31
193.80
174.40
155.33
134.60
110.03
80.34
46.01
9.14
-27.11
-59.55
-85.52
-103.24
-111.77
-110.84
-101.08
-84.14
-62.84
-40.75
-21.37
-7.16
1.05
3.95
3.13
0.23
-3.70
-8.26
-13.42
-19.13
-25.03
-30.51
-34.98
-38.02
-39.51
-39.57
-38.37
-36.12
-33.01
-29.40
-25.78
-22.81
-21.13
-21.14
-22.74
-25.42
-28.38
-30.98
-32.87
-34.01
-34.42
-33.93
-32.07
-28.32
-22.37
-14.46
-5.32
3.96
12.33
19.06
23.80
26.60
27.72
27.61
26.72
25.53
24.45
23.84
23.95
24.91
26.67
28.89
31.05
32.51
32.78
31.75
29.70
27.25
24.90
22.84
20.86
18.59
15.77
12.52
9.29
6.60
4.75
3.57
2.57
1.17
-1.04
-4.10
-7.66
-11.13
-13.87
-15.40
-15.53
-14.41
-12.59
-10.94
-10.51
-12.26
-16.65
-23.34
-31.11
-38.17
-42.72
-43.60
-40.78
-35.33
-28.91
-23.18
-19.18
-17.27
-17.28
-18.99
-22.25
-26.99
-32.83
-39.03
-44.49
-48.07
-49.05
-47.36
-43.55
-38.50
-33.05
-27.73
-22.66
-17.70
-12.67
-7.54
-2.59
1.71
4.88
6.76
7.71
8.59
10.50
14.40
20.75
29.35
39.44
49.88
59.37
66.68
70.80
71.25
68.22
62.61
55.78
49.12
43.50
39.08
35.51
32.25
28.97
25.64
22.36
19.04
15.29
10.56
4.54
-2.64
-10.28
-17.46
-23.30
-27.26
-29.15
-29.04
-27.16
-23.80
-19.39
-14.50
-9.79
-5.83
-2.95
-1.06
0.21
1.39
2.82
4.55
6.28
7.60
8.15
7.86
6.92
5.71
4.58
3.73
3.12
2.55
1.64
0.03
-2.62
-6.53
-11.77
-18.27
-25.90
-34.60
-44.31
-54.86
-65.82
-76.38
-85.40
-91.71
-94.44
-93.16
-88.05
-79.75
-69.27
-57.55
-45.02
-31.21
-14.72
6.16
32.57
64.11
98.49
131.96
160.54
181.35
193.25
196.86
193.81
185.93
174.84
161.85
148.20
134.97
122.95
112.36
102.93
94.37
86.75
80.74
77.49
78.02
82.76
91.14
101.57
111.70
118.85
120.31
113.81
97.92
72.62
39.81
3.18
-32.57
-63.17
-86.15
-101.29
-110.10
-114.53
-115.88
-114.46
-110.21
-103.58
-95.96
-88.99
-83.31
-77.39
-67.53
-49.46
-20.53
18.39
62.74
105.58
140.11
161.87
169.99
166.86
156.79
144.19
132.20
122.19
114.04
107.02
100.27
93.08
84.72
74.27
60.79
43.78
23.79
2.68
-16.66
-31.19
-38.73
-38.73
-32.55
-22.93
-13.20
-6.23
-3.73
-6.00
-12.09
-20.41
-29.34
-37.68
-44.94
-51.13
-56.57
-61.58
-66.39
-71.09
-75.66
-80.00
-83.96
-87.36
-90.10
-92.09
-93.31
-93.70
-93.14
-91.30
-87.54
-80.92
-70.34
-54.97
-34.76
-10.71
15.22
40.81
64.48
86.01
106.63
128.20
151.77
176.45
199.11
215.31
221.01
214.05
194.78
165.52
129.32
88.73
45.20
-0.69
-48.55
-97.47
-145.66
-190.61
-229.68
-260.87
-283.40
-297.91
-306.02
-309.74
-310.70
-309.94
-307.97
-305.23
-302.29
-299.72
-297.64
-295.35
-291.36
-283.93
-271.94
-255.53
-235.88
-214.68
-193.20
-171.84
-150.24
-127.82
-104.28
-79.82
-55.05
-30.64
-7.20
14.73
34.62
51.85
65.79
76.24
83.80
90.07
97.33
107.71
122.27
140.36
159.71
177.13
189.54
194.88
192.63
183.74
170.19
154.40
138.57
124.25
112.11
101.88
92.51
82.45
70.07
54.19
34.60
12.26
-10.81
-31.97
-48.77
-59.74
-64.69
-64.73
-61.75
-57.53
-53.30
-49.46
-45.88
-42.36
-38.91
-35.84
-33.48
-31.80
-30.33
-28.37
-25.19
-20.39
-14.01
-6.43
1.84
10.28
18.42
25.87
32.21
37.08
40.32
42.01
42.46
42.05
41.02
39.33
36.74
32.96
28.00
22.31
16.68
12.06
9.06
7.83
7.93
8.69
9.48
9.99
10.20
10.12
9.60
8.24
5.66
1.84
-2.68
-6.90
-9.65
-10.14
-8.13
-3.92
1.76
8.05
14.02
18.87
22.10
23.75
24.53
25.72
28.83
34.91
44.12
55.47
67.11
77.02
83.80
87.32
88.86
90.88
96.15
106.75
123.31
144.55
167.55
188.52
203.97
211.76
211.81
205.99
197.48
189.57
184.45
182.31
181.22
177.70
168.09
150.05
123.77
92.25
60.30
32.69
12.28
-0.99
-9.67
-17.28
-26.34
-37.27
-48.55
-58.16
-65.30
-71.33
-79.11
-91.56
-109.71
-131.75
-153.54
-170.23
-178.13
-176.21
-166.22
-151.52
-135.57
-120.91
-109.09
-101.46
-99.36
-103.46
-112.54
-123.09
-130.53
-132.11
-129.33
-128.10
-135.59
-155.69
-185.87
-218.14
-243.89
-259.63
-269.43
-282.40
-306.45
-342.42
-382.60
-414.93
-429.98
-426.30
-410.80
-394.16
-384.19
-381.40
-379.46
-369.38
-345.00
-305.93
-256.92
-204.44
-153.29
-105.29
-60.60
-19.83
14.90
41.15
58.30
69.25
79.81
96.11
121.45
154.83
191.67
226.07
253.55
272.27
282.73
286.44
284.60
277.75
266.06
250.11
231.27
211.57
193.22
177.88
165.93
156.33
146.89
135.05
118.83
97.64
72.51
45.72
20.12
-1.68
-17.64
-26.52
-27.95
-22.57
-12.19
0.51
12.64
22.07
28.16
31.94
35.43
40.54
47.97
56.85
65.00
70.05
70.41
65.99
58.23
49.45
41.92
36.97
34.59
33.52
32.08
28.90
23.60
16.73
9.25
1.87
-5.40
-13.22
-22.55
-34.03
-47.66
-62.49
-76.83
-88.67
-96.38
-99.36
-98.33
-94.97
-91.05
-87.49
-83.81
-78.34
-69.18
-55.29
-37.18
-16.88
2.74
18.89
29.55
33.75
31.36
22.93
9.72
-6.29
-22.30
-35.18
-42.21
-41.88
-34.54
-22.22
-7.94
5.35
15.63
22.12
25.06
25.17
23.08
19.15
13.70
7.25
0.76
-4.53
-7.47
-7.42
-4.50
0.55
6.69
13.07
19.30
25.39
31.49
37.43
42.61
46.10
47.10
45.32
41.29
36.19
31.37
27.86
26.02
25.53
25.63
25.62
25.19
24.42
23.74
23.40
23.33
23.10
22.19
20.30
17.52
14.20
10.76
7.41
4.15
1.06
-1.42
-2.40
-0.66
4.84
14.47
27.64
42.92
58.44
72.62
84.53
94.12
102.05
109.21
116.21
123.13
129.56
134.93
138.82
141.31
142.90
144.44
147.13
152.59
163.05
180.84
207.44
242.21
281.45
318.90
347.64
362.69
362.97
351.57
334.04
315.70
299.74
286.89
276.61
268.69
263.75
262.63
265.06
269.00
271.27
268.96
260.52
245.67
224.24
194.92
155.08
101.89
34.18
-46.26
-134.74
-224.90
-310.49
-386.74
-450.74
-501.32
-538.70
-564.30
-580.53
-590.51
-597.30
-603.21
-609.38
-615.79
-621.93
-627.34
-632.13
-637.07
-643.65
-653.89
-669.68
-691.63
-717.56
-741.72
-755.61
-750.46
-720.52
-665.57
-591.37
-507.39
-423.35
-346.03
-278.16
-219.20
-167.52
-122.02
-82.58
-49.41
-21.96
1.46
23.18
45.23
68.48
92.57
116.17
137.97
157.35
174.69
191.08
207.79
225.58
244.33
263.02
280.18
294.42
304.88
311.35
314.08
313.50
309.81
302.81
291.97
276.61
256.22
230.61
200.11
165.44
127.64
87.91
47.53
7.80
-30.10
-65.09
-96.35
-123.36
-145.82
-163.57
-176.39
-183.93
-185.77
-181.66
-171.79
-157.01
-138.77
-118.84
-98.83
-79.68
-61.42
-43.28
-24.24
-3.53
18.89
42.28
65.49
87.47
107.73
126.42
144.25
162.38
182.32
205.68
233.46
264.99
296.79
322.45
333.84
323.74
288.64
230.63
157.23
79.23
7.51
-50.04
-90.18
-114.43
-127.55
-135.12
-141.32
-147.62
-153.15
-155.94
-154.15
-146.50
-131.64
-107.52
-72.25
-26.09
26.56
76.90
114.33
131.07
126.02
105.91
82.33
66.37
63.93
74.18
91.75
110.72
127.75
142.74
157.09
171.38
184.10
192.25
193.14
186.17
173.37
158.58
145.62
136.85
132.56
131.57
132.47
134.50
137.83
143.05
150.39
159.09
167.29
172.56
173.20
169.53
164.47
162.73
168.70
183.95
205.80
227.96
243.09
246.22
236.84
218.91
198.67
181.54
169.98
163.19
158.48
153.19
146.10
137.51
128.32
119.10
109.60
98.99
86.54
72.37
57.54
43.71
32.28
23.82
17.79
12.85
7.56
1.05
-6.63
-14.64
-21.93
-27.73
-31.92
-34.96
-37.47
-39.92
-42.40
-44.77
-46.80
-48.36
-49.39
-49.86
-49.55
-48.21
-45.64
-41.97
-37.72
-33.57
-30.15
-27.66
-25.90
-24.39
-22.81
-21.22
-20.18
-20.41
-22.43
-26.18
-30.87
-35.30
-38.32
-39.34
-38.59
-36.98
-35.65
-35.40
-36.35
-37.95
-39.39
-40.23
-40.68
-41.58
-43.92
-48.28
-54.43
-61.47
-68.28
-73.83
-77.27
-77.66
-73.90
-64.94
-50.66
-32.49
-13.49
2.54
12.52
15.32
12.11
5.51
-1.72
-7.77
-12.03
-14.61
-15.51
-14.31
-10.33
-3.31
6.19
16.83
27.00
35.52
41.96
46.67
50.31
53.39
55.87
57.14
56.21
52.21
44.76
34.24
21.79
9.14
-1.83
-9.49
-12.92
-12.17
-8.12
-2.27
3.90
9.23
13.27
16.17
18.41
20.50
22.49
24.04
24.45
23.11
19.75
14.69
8.69
2.61
-2.94
-7.86
-12.44
-17.02
-21.61
-25.66
-28.30
-28.80
-27.06
-23.77
-20.21
-17.68
-16.98
-18.15
-20.66
-23.80
-27.05
-30.15
-33.06
-35.68
-37.69
-38.66
-38.14
-35.95
-32.24
-27.49
-22.37
-17.53
-13.44
-10.26
-7.89
-6.10
-4.66
-3.46
-2.58
-2.12
-2.08
-2.32
-2.57
-2.60
-2.34
-1.89
-1.44
-1.12
-1.00
-1.01
-1.14
-1.51
-2.31
-3.78
-6.05
-8.99
-12.15
-14.76
-15.95
-14.90
-11.18
-4.89
3.29
12.29
20.93
28.26
33.70
37.09
38.53
38.18
36.14
32.57
27.66
21.81
15.61
9.76
4.86
1.34
-0.67
-1.28
-0.84
0.22
1.50
2.61
3.21
3.04
1.88
-0.31
-3.40
-7.14
-11.15
-15.06
-18.53
-21.30
-23.19
-24.06
-23.90
-22.77
-20.81
-18.13
-14.81
-10.89
-6.56
-2.24
1.41
3.64
4.06
2.90
0.97
-0.68
-1.29
-0.74
0.53
1.74
2.31
2.07
1.25
0.24
-0.74
-1.64
-2.57
-3.62
-4.77
-5.88
-6.80
-7.58
-8.43
-9.68
-11.59
-14.20
-17.13
-19.70
-21.10
-20.67
-18.24
-14.16
-9.21
-4.30
-0.15
2.80
4.51
5.15
4.98
4.31
3.40
2.50
1.78
1.33
1.14
1.16
1.28
1.41
1.51
1.61
1.82
2.26
3.05
4.17
5.41
6.30
6.28
4.80
1.66
-2.95
-8.36
-13.64
-17.87
-20.40
-21.02
-20.00
-17.87
-15.21
-12.50
-9.98
-7.69
-5.59
-3.68
-2.03
-0.82
-0.21
-0.20
-0.56
-0.81
-0.45
0.84
2.89
5.19
7.01
7.92
7.86
7.20
6.38
5.59
4.67
3.23
0.97
-2.02
-5.34
-8.48
-11.06
-13.02
-14.52
-15.66
-16.40
-16.56
-15.99
-14.67
-12.74
-10.34
-7.44
-3.77
1.07
7.25
14.47
21.87
28.29
32.68
34.49
33.89
31.59
28.44
25.04
21.65
18.16
14.42
10.44
6.43
2.63
-0.79
-3.87
-6.76
-9.61
-12.45
-15.22
-17.74
-19.88
-21.51
-22.43
-22.42
-21.25
-18.89
-15.55
-11.70
-7.97
-4.85
-2.59
-1.18
-0.45
-0.19
-0.30
-0.70
-1.35
-2.20
-3.19
-4.24
-5.31
-6.41
-7.55
-8.69
-9.71
-10.34
-10.31
-9.43
-7.79
-5.80
-4.13
-3.43
-3.98
-5.67
-7.98
-10.30
-12.19
-13.47
-14.13
-14.09
-13.17
-11.18
-8.18
-4.53
-0.87
2.23
4.47
5.92
6.87
7.57
8.07
8.19
7.75
6.68
5.18
3.58
2.17
1.08
0.34
-0.08
-0.17
0.13
0.80
1.65
2.35
2.44
1.61
-0.22
-2.82
-5.75
-8.49
-10.57
-11.63
-11.37
-9.68
-6.64
-2.61
1.76
5.70
8.62
10.19
10.50
9.87
8.64
7.10
5.32
3.38
1.47
-0.15
-1.20
-1.55
-1.34
-0.87
-0.49
-0.43
-0.72
-1.22
-1.77
-2.32
-3.00
-4.10
-5.92
-8.56
-11.84
-15.24
-18.05
-19.56
-19.35
-17.41
-14.11
-10.06
-5.92
-2.15
1.02
3.48
5.19
6.13
6.27
5.66
4.47
2.93
1.35
0.01
-0.94
-1.47
-1.64
-1.67
-1.79
-2.21
-3.03
-4.22
-5.59
-6.93
-8.13
-9.30
-10.76
-12.84
-15.73
-19.16
-22.47
-24.79
-25.35
-23.79
-20.30
-15.57
-10.44
-5.69
-1.71
1.45
3.95
5.96
7.49
8.40
8.52
7.84
6.58
5.20
4.14
3.69
3.76
4.06
4.19
3.80
2.78
1.22
-0.67
-2.67
-4.68
-6.84
-9.45
-12.85
-17.27
-22.55
-28.08
-32.83
-35.64
-35.50
-31.95
-25.20
-16.23
-6.46
2.58
9.62
13.98
15.72
15.50
14.24
12.76
11.52
10.57
9.76
8.94
8.13
7.56
7.46
7.93
8.84
9.89
10.73
11.13
10.98
10.30
9.15
7.47
5.20
2.18
-1.59
-6.00
-10.75
-15.50
-19.85
-23.44
-25.93
-26.89
-25.98
-23.11
-18.56
-13.00
-7.29
-2.18
1.94
5.12
7.64
9.78
11.55
12.80
13.33
13.12
12.45
11.63
10.95
10.45
9.97
9.27
8.18
6.69
4.92
3.04
1.19
-0.53
-2.05
-3.34
-4.42
-5.26
-5.96
-6.66
-7.57
-8.89
-10.70
-12.89
-15.06
-16.61
-16.91
-15.54
-12.53
-8.27
-3.43
1.33
5.59
9.12
11.94
14.09
15.63
16.63
17.12
17.17
16.79
16.03
14.90
13.44
11.73
9.90
8.10
6.44
4.99
3.82
2.99
2.55
2.46
2.51
2.43
1.95
0.84
-0.89
-3.14
-5.71
-8.46
-11.28
-14.07
-16.69
-18.84
-20.13
-20.15
-18.65
-15.71
-11.67
-7.08
-2.46
1.77
5.38
8.26
10.40
11.83
12.53
12.55
11.95
10.92
9.70
8.60
7.91
7.79
8.19
8.83
9.30
9.17
8.19
6.43
4.16
1.81
-0.26
-1.84
-2.96
-3.76
-4.45
-5.24
-6.31
-7.87
-9.96
-12.45
-14.91
-16.71
-17.17
-15.91
-12.95
-8.71
-3.85
0.98
5.29
8.83
11.52
13.42
14.58
15.16
15.32
15.20
14.92
14.54
14.14
13.77
13.47
13.21
12.85
12.18
11.08
9.60
7.93
6.33
4.96
3.79
2.56
0.96
-1.25
-4.10
-7.40
-10.90
-14.32
-17.47
-20.14
-22.10
-22.98
-22.50
-20.63
-17.70
-14.45
-11.66
-9.85
-8.98
-8.50
-7.66
-5.93
-3.22
0.12
3.55
6.71
9.45
11.86
13.97
15.75
16.98
17.46
17.09
15.90
14.13
12.08
10.07
8.31
6.91
5.80
4.76
3.52
1.83
-0.34
-2.85
-5.33
-7.46
-9.05
-10.14
-10.90
-11.46
-11.78
-11.60
-10.60
-8.59
-5.72
-2.43
0.68
3.08
4.65
5.57
6.20
6.90
7.79
8.75
9.49
9.69
9.10
7.75
5.89
4.02
2.66
2.15
2.41
2.90
2.81
1.48
-1.33
-5.21
-9.30
-12.68
-14.74
-15.45
-15.33
-15.12
-15.49
-16.83
-19.16
-22.16
-25.21
-27.41
-27.61
-24.63
-17.69
-6.76
7.26
22.61
37.13
48.90
56.63
60.03
59.58
56.20
50.83
44.20
36.73
28.74
20.51
12.53
5.35
-0.51
-4.71
-7.32
-8.76
-9.59
-10.22
-10.70
-10.79
-10.16
-8.78
-7.00
-5.52
-4.99
-5.75
-7.58
-9.85
-11.81
-13.01
-13.39
-13.12
-12.31
-10.61
-7.25
-1.28
7.81
19.70
33.10
46.01
56.52
63.30
66.07
65.47
62.62
58.56
53.89
48.64
42.50
35.33
27.55
20.22
14.69
11.79
11.17
11.12
9.14
3.14
-7.37
-20.90
-34.53
-45.26
-51.34
-52.79
-50.97
-47.51
-43.47
-39.00
-33.93
-28.39
-23.31
-20.13
-19.98
-22.98
-27.93
-32.82
-35.66
-35.42
-32.33
-27.61
-22.80
-18.99
-16.54
-15.10
-14.02
-12.82
-11.39
-9.96
-8.85
-8.23
-7.98
-7.79
-7.31
-6.31
-4.74
-2.81
-0.88
0.67
1.51
1.55
0.88
-0.22
-1.41
-2.46
-3.36
-4.23
-5.28
-6.63
-8.22
-9.81
-11.10
-11.79
-11.73
-10.87
-9.32
-7.23
-4.83
-2.29
0.16
2.35
4.07
5.14
5.46
5.01
3.93
2.46
0.91
-0.43
-1.36
-1.83
-2.01
-2.14
-2.44
-3.00
-3.75
-4.40
-4.56
-3.96
-2.61
-0.82
0.82
1.72
1.54
0.30
-1.63
-3.78
-5.81
-7.59
-9.18
-10.60
-11.64
-11.88
-10.91
-8.58
-5.23
-1.51
1.78
4.11
5.33
5.65
5.40
4.83
4.09
3.25
2.49
2.01
1.92
2.10
2.30
2.28
1.95
1.46
1.00
0.67
0.40
0.00
-0.70
-1.71
-2.88
-4.07
-5.23
-6.41
-7.66
-9.00
-10.35
-11.54
-12.42
-12.83
-12.62
-11.63
-9.77
-7.12
-3.96
-0.73
2.23
4.69
6.68
8.32
9.71
10.79
11.47
11.74
11.87
12.22
13.13
14.60
16.23
17.32
17.27
15.92
13.71
11.39
9.63
8.67
8.20
7.57
6.17
3.65
-0.01
-4.63
-9.86
-15.23
-20.12
-23.69
-25.08
-23.72
-19.66
-13.63
-6.91
-0.83
3.66
6.32
7.48
7.86
8.13
8.69
9.53
10.38
10.95
11.06
10.81
10.45
10.22
10.25
10.44
10.52
10.12
8.92
6.65
3.19
-1.45
-7.12
-13.50
-20.19
-26.75
-32.79
-38.01
-42.24
-45.33
-47.11
-47.39
-46.00
-42.96
-38.55
-33.36
-28.09
-23.37
-19.57
-16.74
-14.70
-13.20
-12.01
-11.00
-10.02
-8.95
-7.71
-6.26
-4.68
-3.10
-1.61
-0.23
1.08
2.35
3.56
4.62
5.42
5.87
5.86
5.37
4.36
2.79
0.66
-2.07
-5.38
-9.18
-13.17
-16.78
-19.23
-19.75
-17.91
-13.92
-8.56
-2.93
2.03
5.84
8.66
11.00
13.32
15.78
18.05
19.57
19.87
18.80
16.60
13.85
11.18
9.08
7.74
7.04
6.68
6.32
5.71
4.73
3.39
1.77
-0.07
-2.16
-4.57
-7.43
-10.79
-14.54
-18.36
-21.76
-24.09
-24.77
-23.42
-20.04
-15.05
-9.16
-3.15
2.38
7.10
10.95
14.03
16.38
17.94
18.61
18.36
17.33
15.86
14.38
13.25
12.66
12.60
12.93
13.38
13.64
13.49
12.77
11.40
9.39
6.77
3.58
-0.10
-4.17
-8.44
-12.61
-16.29
-19.08
-20.51
-20.26
-18.19
-14.43
-9.39
-3.76
1.71
6.34
9.67
11.61
12.34
12.20
11.56
10.71
9.84
9.04
8.28
7.48
6.55
5.49
4.43
3.57
3.07
2.93
2.97
2.90
2.48
1.64
0.41
-1.11
-2.92
-5.14
-7.90
-11.08
-14.20
-16.46
-16.94
-15.08
-10.85
-4.89
1.74
7.89
12.73
15.94
17.66
18.31
18.27
17.82
17.06
16.05
14.82
13.44
11.99
10.61
9.42
8.57
8.18
8.28
8.74
9.30
9.59
9.30
8.17
6.07
3.02
-0.90
-5.48
-10.34
-14.93
-18.60
-20.74
-20.95
-19.16
-15.58
-10.72
-5.11
0.66
6.14
10.94
14.78
17.47
18.92
19.27
18.80
17.95
17.14
16.63
16.41
16.28
16.00
15.34
14.27
12.89
11.35
9.81
8.38
7.06
5.73
4.23
2.26
-0.45
-4.04
-8.36
-12.90
-16.92
-19.60
-20.37
-19.05
-15.90
-11.51
-6.57
-1.68
2.79
6.68
10.03
12.89
15.19
16.77
17.45
17.08
15.77
13.83
11.73
9.95
8.73
8.00
7.43
6.63
5.39
3.76
2.08
0.73
-0.03
-0.33
-0.54
-1.21
-2.75
-5.29
-8.58
-12.14
-15.36
-17.72
-18.81
-18.38
-16.33
-12.78
-8.06
-2.69
2.69
7.48
11.30
14.03
15.78
16.81
17.34
17.43
17.05
16.16
14.81
13.27
11.87
10.89
10.41
10.24
10.02
9.35
8.04
6.13
3.97
1.97
0.39
-0.79
-1.79
-3.03
-4.79
-7.09
-9.73
-12.31
-14.44
-15.80
-16.18
-15.46
-13.58
-10.59
-6.67
-2.21
2.31
6.36
9.61
11.94
13.53
14.61
15.38
15.85
15.88
15.32
14.15
12.58
11.00
9.77
9.09
8.95
9.13
9.32
9.33
8.99
8.23
7.03
5.40
3.41
1.23
-0.96
-3.03
-4.96
-6.87
-8.93
-11.28
-13.90
-16.57
-18.86
-20.19
-20.11
-18.37
-15.12
-10.91
-6.48
-2.51
0.56
2.70
4.13
5.13
5.85
6.27
6.30
5.92
5.26
4.62
4.30
4.56
5.49
7.00
8.82
10.57
11.83
12.27
11.77
10.56
9.03
7.59
6.38
5.28
3.94
2.02
-0.63
-3.99
-7.85
-11.90
-15.74
-18.84
-20.57
-20.39
-18.04
-13.82
-8.50
-3.13
1.36
4.47
6.20
6.89
6.97
6.75
6.31
5.58
4.47
3.01
1.35
-0.19
-1.33
-1.82
-1.64
-0.95
-0.03
0.80
1.35
1.52
1.39
1.06
0.67
0.25
-0.19
-0.74
-1.51
-2.63
-4.18
-6.15
-8.35
-10.48
-12.08
-12.68
-11.95
-9.83
-6.56
-2.63
1.36
4.86
7.55
9.32
10.27
10.61
10.56
10.24
9.73
9.07
8.35
7.66
7.12
6.83
6.79
6.91
7.01
6.86
6.32
5.44
4.38
3.41
2.70
2.25
1.88
1.29
0.26
-1.29
-3.21
-5.24
-7.18
-8.97
-10.65
-12.20
-13.44
-14.01
-13.58
-11.94
-9.22
-5.86
-2.40
0.61
2.87
4.35
5.24
5.83
6.35
6.89
7.41
7.75
7.80
7.52
6.98
6.35
5.76
5.35
5.19
5.33
5.84
6.66
7.61
8.38
8.67
8.31
7.39
6.14
4.82
3.58
2.34
0.97
-0.69
-2.68
-4.94
-7.29
-9.49
-11.20
-12.08
-11.78
-10.19
-7.50
-4.20
-0.95
1.70
3.43
4.32
4.72
5.08
5.68
6.55
7.46
8.18
8.63
8.98
9.62
10.93
13.13
16.21
19.95
24.00
28.03
31.69
34.77
37.36
40.13
44.42
52.10
65.02
84.33
109.88
140.02
171.86
201.66
225.53
240.07
243.06
233.85
213.69
185.55
153.62
122.36
95.59
75.65
63.05
56.59
53.81
51.81
48.08
41.04
30.42
17.15
2.76
-11.13
-23.34
-33.33
-41.00
-46.50
-50.06
-51.88
-52.30
-51.76
-50.71
-49.53
-48.36
-47.13
-45.77
-44.34
-43.12
-42.53
-42.93
-44.43
-46.78
-49.56
-52.22
-54.24
-55.25
-54.98
-53.34
-50.38
-46.22
-41.07
-35.25
-29.14
-23.16
-17.83
-13.49
-10.33
-8.24
-6.97
-6.21
-5.74
-5.55
-5.70
-6.31
-7.35
-8.64
-9.91
-11.01
-12.03
-13.31
-15.26
-18.12
-21.85
-26.08
-30.26
-34.00
-37.27
-40.32
-43.57
-47.29
-51.43
-55.69
-59.73
-63.33
-66.46
-69.14
-71.36
-73.01
-73.98
-74.24
-73.92
-73.20
-72.15
-70.57
-68.09
-64.35
-59.29
-53.32
-47.18
-41.63
-37.08
-33.39
-30.02
-26.23
-21.42
-15.34
-8.17
-0.35
7.46
14.63
20.46
24.40
26.18
25.97
24.49
22.77
21.82
22.09
23.30
24.55
24.72
22.96
19.01
13.22
6.34
-0.79
-7.49
-13.35
-18.15
-21.87
-24.57
-26.41
-27.60
-28.33
-28.78
-29.04
-29.18
-29.31
-29.58
-30.16
-31.17
-32.56
-34.11
-35.47
-36.22
-36.13
-35.11
-33.38
-31.31
-29.37
-27.94
-27.20
-27.11
-27.38
-27.64
-27.58
-27.08
-26.29
-25.58
-25.31
-25.67
-26.55
-27.63
-28.49
-28.81
-28.40
-27.19
-25.18
-22.44
-19.05
-15.18
-11.09
-7.15
-3.75
-1.21
0.32
0.85
0.59
-0.14
-0.97
-1.58
-1.78
-1.49
-0.70
0.50
2.01
3.70
5.36
6.72
7.49
7.44
6.45
4.64
2.26
-0.40
-3.06
-5.59
-7.99
-10.28
-12.44
-14.36
-15.89
-16.88
-17.24
-16.92
-15.94
-14.36
-12.28
-9.86
-7.32
-4.87
-2.68
-0.88
0.40
0.94
0.59
-0.75
-2.94
-5.64
-8.28
-10.38
-11.56
-11.76
-11.14
-10.07
-8.99
-8.31
-8.30
-9.05
-10.43
-12.14
-13.87
-15.39
-16.65
-17.74
-18.84
-20.20
-21.96
-24.19
-26.79
-29.41
-31.51
-32.46
-31.73
-29.12
-24.89
-19.62
-14.09
-8.94
-4.65
-1.42
0.70
1.77
1.96
1.49
0.68
-0.18
-0.88
-1.33
-1.52
-1.53
-1.42
-1.25
-1.14
-1.23
-1.65
-2.43
-3.52
-4.82
-6.24
-7.80
-9.55
-11.58
-13.91
-16.51
-19.28
-22.13
-24.93
-27.40
-29.13
-29.60
-28.40
-25.38
-20.87
-15.51
-10.08
-5.26
-1.42
1.32
3.02
3.81
3.89
3.48
2.89
2.47
2.47
2.97
3.84
4.88
5.90
6.79
7.54
8.09
8.36
8.25
7.71
6.69
5.21
3.28
0.90
-1.93
-5.14
-8.61
-12.16
-15.56
-18.61
-21.04
-22.56
-22.82
-21.54
-18.61
-14.15
-8.55
-2.37
3.82
9.52
14.39
18.19
20.80
22.15
22.32
21.54
20.18
18.71
17.53
16.94
16.98
17.50
18.18
18.62
18.46
17.50
15.79
13.53
11.08
8.78
6.71
4.72
2.41
-0.64
-4.69
-9.60
-14.94
-20.07
-24.35
-27.26
-28.41
-27.55
-24.55
-19.58
-13.07
-5.75
1.52
7.91
12.90
16.30
18.16
18.78
18.44
17.50
16.29
15.08
14.07
13.30
12.74
12.33
12.03
11.76
11.43
10.86
9.84
8.28
6.27
4.03
1.81
-0.32
-2.48
-4.94
-7.98
-11.65
-15.84
-20.28
-24.57
-28.25
-30.71
-31.28
-29.46
-25.16
-18.86
-11.49
-4.11
2.51
8.00
12.41
15.93
18.68
20.64
21.69
21.84
21.24
20.20
19.04
18.03
17.32
16.94
16.84
16.86
16.72
16.15
14.91
12.99
10.50
7.67
4.59
1.25
-2.47
-6.62
-11.15
-15.85
-20.44
-24.69
-28.36
-31.21
-32.86
-32.82
-30.63
-26.13
-19.52
-11.50
-2.99
5.09
12.08
17.68
21.88
24.85
26.76
27.72
27.76
26.89
25.25
23.11
20.90
19.11
18.00
17.64
17.77
17.95
17.74
16.84
15.15
12.78
9.94
6.86
3.68
0.46
-2.85
-6.37
-10.26
-14.66
-19.58
-24.78
-29.77
-33.80
-36.03
-35.76
-32.65
-26.88
-19.13
-10.39
-1.72
6.05
12.41
17.24
20.67
22.98
24.47
25.33
25.64
25.43
24.71
23.56
22.14
20.66
19.37
18.54
18.31
18.76
19.73
20.91
21.92
22.37
22.05
20.97
19.33
17.37
15.23
12.83
9.96
6.35
1.85
-3.38
-8.87
-13.88
-17.54
-19.07
-17.98
-14.24
-8.26
-0.76
7.36
15.20
22.03
27.41
31.21
33.51
34.56
34.61
33.86
32.42
30.41
27.95
25.30
22.75
20.60
19.02
17.97
17.24
16.40
15.00
12.74
9.60
6.03
2.89
1.09
1.24
3.31
6.57
9.81
11.79
11.67
9.18
4.66
-1.17
-7.36
-12.91
-16.87
-18.48
-17.31
-13.44
-7.52
-0.60
6.16
11.82
15.84
18.20
19.21
19.43
19.39
19.46
19.74
20.14
20.45
20.49
20.28
19.88
19.46
19.13
18.84
18.51
18.07
17.50
16.84
16.14
15.35
14.36
13.05
11.31
9.15
6.71
4.31
2.32
1.13
0.98
1.83
3.40
5.29
7.14
8.81
10.31
11.73
13.09
14.29
15.19
15.71
15.84
15.65
15.16
14.32
13.03
11.27
9.15
6.98
5.15
4.00
3.74
4.35
5.56
6.93
8.02
8.43
7.99
6.78
5.00
2.92
0.80
-1.19
-2.96
-4.49
-5.86
-7.20
-8.77
-10.82
-13.58
-17.06
-21.01
-24.89
-27.98
-29.57
-29.13
-26.45
-21.73
-15.53
-8.59
-1.72
4.48
9.66
13.74
16.82
18.99
20.27
20.68
20.24
19.12
17.67
16.29
15.23
14.52
13.99
13.41
12.66
11.76
10.76
9.69
8.46
6.90
4.93
2.62
0.26
-1.82
-3.33
-4.22
-4.69
-5.13
-6.02
-7.72
-10.34
-13.60
-16.98
-19.74
-21.21
-20.96
-18.91
-15.39
-10.93
-6.22
-1.89
1.63
4.20
5.89
6.96
7.60
7.93
8.00
7.80
7.42
6.97
6.61
6.38
6.24
6.10
5.90
5.72
5.67
5.76
5.88
5.80
5.25
4.16
2.69
1.15
-0.11
-0.91
-1.33
-1.65
-2.29
-3.61
-5.80
-8.78
-12.18
-15.44
-17.87
-18.86
-18.01
-15.26
-10.93
-5.63
-0.16
4.74
8.57
11.19
12.78
13.68
14.19
14.46
14.50
14.27
13.83
13.27
12.73
12.22
11.66
10.92
9.90
8.65
7.29
6.00
4.88
3.97
3.26
2.79
2.52
2.41
2.33
2.10
1.58
0.65
-0.73
-2.57
-4.83
-7.38
-9.97
-12.19
-13.61
-13.89
-12.91
-10.79
-7.91
-4.71
-1.62
1.07
3.26
4.98
6.33
7.41
8.22
8.63
8.51
7.85
6.76
5.55
4.49
3.78
3.42
3.29
3.22
3.13
2.99
2.79
2.51
2.04
1.26
0.11
-1.36
-2.98
-4.56
-6.03
-7.50
-9.19
-11.26
-13.59
-15.75
-17.10
-17.10
-15.57
-12.79
-9.36
-5.90
-2.77
-0.02
2.51
4.94
7.22
9.04
10.07
10.16
9.48
8.42
7.50
7.05
7.10
7.36
7.42
6.95
5.91
4.52
3.12
2.00
1.24
0.75
0.32
-0.20
-0.94
-1.95
-3.32
-5.15
-7.52
-10.33
-13.29
-15.94
-17.74
-18.25
-17.26
-14.86
-11.38
-7.32
-3.17
0.64
3.92
6.63
8.84
10.64
12.04
12.91
13.02
12.26
10.70
8.67
6.64
5.04
4.07
3.64
3.44
3.14
2.52
1.59
0.47
-0.71
-1.91
-3.13
-4.37
-5.58
-6.75
-7.95
-9.44
-11.55
-14.39
-17.72
-20.90
-23.03
-23.38
-21.63
-18.06
-13.40
-8.50
-4.10
-0.61
1.93
3.77
5.24
6.68
8.22
9.86
11.42
12.71
13.60
14.04
14.09
13.77
13.09
12.01
10.54
8.76
6.82
4.83
2.86
0.88
-1.14
-3.20
-5.17
-6.84
-8.02
-8.66
-8.93
-9.19
-9.93
-11.44
-13.67
-16.08
-17.83
-18.14
-16.59
-13.40
-9.24
-4.99
-1.35
1.37
3.28
4.66
5.75
6.63
7.26
7.53
7.38
6.81
5.92
4.87
3.84
2.99
2.41
2.04
1.78
1.57
1.43
1.46
1.67
1.99
2.19
2.03
1.36
0.18
-1.40
-3.29
-5.45
-7.95
-10.73
-13.53
-15.86
-17.16
-17.06
-15.51
-12.80
-9.43
-5.84
-2.35
0.89
3.81
6.36
8.40
9.84
10.56
10.65
10.27
9.66
9.05
8.57
8.23
7.98
7.73
7.41
6.99
6.45
5.82
5.14
4.50
3.99
3.70
3.63
3.61
3.35
2.54
0.99
-1.28
-4.06
-7.02
-9.83
-12.23
-14.06
-15.21
-15.55
-14.98
-13.40
-10.80
-7.36
-3.40
0.59
4.10
6.74
8.43
9.37
9.99
10.66
11.55
12.51
13.22
13.43
13.12
12.48
11.77
11.16
10.62
10.02
9.26
8.36
7.46
6.71
6.22
5.95
5.74
5.42
4.80
3.76
2.31
0.56
-1.28
-2.99
-4.45
-5.65
-6.63
-7.30
-7.46
-6.73
-4.78
-1.54
2.80
7.74
12.73
17.26
21.04
23.97
26.18
27.96
29.72
31.95
34.96
38.82
43.18
47.44
50.92
53.25
54.57
55.50
56.96
59.84
64.75
71.90
80.90
90.71
99.56
105.31
106.12
101.34
91.89
80.12
68.77
59.82
53.64
49.12
44.47
38.29
30.30
21.35
12.86
6.09
1.71
-0.19
0.26
2.96
7.96
15.34
25.02
36.68
49.64
62.94
75.49
86.16
93.90
97.89
97.56
92.66
83.19
69.45
51.96
31.40
8.68
-15.17
-39.17
-62.42
-84.27
-104.24
-121.76
-135.97
-145.61
-149.17
-145.16
-132.58
-111.27
-82.03
-46.59
-7.33
32.98
71.56
106.12
135.13
158.15
175.55
188.12
196.50
200.74
200.23
194.03
181.31
161.86
136.42
106.63
74.68
42.91
13.48
-11.91
-32.09
-46.43
-54.92
-58.04
-56.69
-52.02
-45.08
-36.55
-26.67
-15.38
-2.59
11.47
26.10
40.31
53.12
63.85
72.15
77.97
81.32
82.16
80.55
76.56
70.75
64.14
58.03
53.66
51.79
52.65
55.93
61.04
67.03
73.10
78.71
83.49
87.13
89.03
88.41
84.59
77.57
67.65
55.72
42.71
29.17
15.12
0.35
-14.98
-30.19
-44.31
-58.40
-74.40
-94.42
-119.52
-148.76
-179.45
-208.22
-232.32
-250.47
-266.28
-283.92
-306.35
-333.75
-363.65
-392.56
-417.62
-437.63
-453.00
-470.37
-496.19
-534.42
-584.81
-643.05
-703.05
-759.50
-809.26
-851.50
-893.81
-943.76
-1005.98
-1079.67
-1158.73
-1234.70
-1300.01
-1350.15
-1340.59
-1241.78
-1043.45
-763.13
-440.65
-120.53
164.32
398.15
578.88
711.90
798.30
839.77
839.66
804.81
745.67
672.63
594.82
520.10
455.89
403.80
363.86
334.53
313.32
297.63
285.20
274.92
265.49
256.81
246.44
232.28
212.77
187.87
159.65
131.63
107.60
90.18
80.34
75.63
72.54
67.75
59.68
48.88
37.31
27.28
20.39
17.17
16.42
16.22
14.71
10.83
4.65
-2.93
-10.72
-17.79
-23.66
-28.42
-32.54
-36.58
-40.92
-45.54
-50.11
-54.13
-57.17
-59.00
-59.60
-59.19
-58.08
-56.52
-54.65
-52.52
-50.07
-47.30
-44.23
-40.94
-37.54
-34.14
-30.87
-27.81
-25.01
-22.52
-20.37
-18.56
-17.09
-15.93
-15.04
-14.32
-13.66
-12.94
-12.00
-10.73
-9.00
-6.78
-4.05
-0.88
2.59
6.17
9.65
12.83
15.55
17.71
19.28
20.26
20.66
20.57
20.15
19.67
19.51
20.14
22.02
25.50
30.73
37.65
46.05
55.60
66.00
77.05
88.58
100.44
112.38
124.09
135.04
144.67
152.56
158.58
163.04
166.68
170.46
175.17
181.20
188.31
195.78
202.85
209.08
214.84
221.12
229.27
240.17
253.85
269.26
284.64
298.34
309.59
318.88
327.80
338.21
351.47
367.67
385.14
400.40
408.89
405.88
388.03
354.20
305.58
245.20
177.30
106.94
39.59
-19.82
-68.09
-104.81
-132.18
-153.17
-168.82
-176.95
-173.38
-155.65
-126.48
-94.72
-71.77
-65.55
-75.68
-93.21
-105.25
-101.65
-79.53
-43.07
0.81
47.01
93.85
141.01
186.59
225.46
251.37
260.90
256.25
244.33
232.69
224.86
218.19
205.53
179.32
135.27
73.45
-3.22
-91.01
-185.90
-282.49
-372.55
-445.44
-491.08
-503.95
-485.49
-443.61
-389.36
-332.56
-278.82
-229.32
-182.48
-136.31
-89.95
-43.97
0.02
40.11
74.51
101.83
121.23
132.73
137.06
135.39
128.88
118.39
104.61
88.56
71.73
56.00
42.89
32.90
25.37
18.94
12.42
5.47
-1.47
-7.66
-12.71
-16.91
-21.01
-25.85
-31.89
-39.00
-46.62
-54.09
-60.77
-66.22
-70.11
-72.31
-72.72
-71.13
-67.17
-60.36
-50.45
-37.70
-23.12
-8.32
4.91
15.32
22.54
27.12
30.10
32.33
34.16
35.40
35.78
35.57
35.74
37.74
42.72
50.87
61.12
71.59
80.33
86.13
88.87
89.20
87.88
85.28
81.32
75.76
68.63
60.52
52.36
45.10
39.21
34.46
29.99
24.69
17.69
8.88
-0.68
-8.89
-13.09
-11.04
-1.75
13.97
33.61
53.80
71.22
83.57
89.90
90.54
86.67
79.78
71.32
62.43
53.98
46.56
40.46
35.64
31.71
28.05
24.03
19.35
14.11
8.89
4.46
1.33
-0.53
-1.76
-3.25
-5.59
-8.77
-12.09
-14.54
-15.28
-13.93
-10.66
-6.11
-1.14
3.30
6.33
7.38
6.37
3.86
0.86
-1.54
-2.73
-2.90
-2.94
-3.82
-6.02
-9.17
-12.33
-14.49
-15.11
-14.19
-11.90
-8.30
-3.31
2.78
8.94
13.55
15.14
13.34
9.22
4.70
1.32
-0.74
-2.68
-6.18
-12.25
-20.46
-29.37
-37.53
-44.37
-50.38
-56.55
-63.46
-70.76
-77.29
-81.81
-83.62
-83.08
-81.55
-80.92
-82.92
-88.44
-97.17
-107.61
-117.52
-124.67
-127.50
-125.47
-118.97
-108.84
-95.90
-80.75
-63.88
-46.02
-28.31
-12.07
1.71
12.98
22.81
32.92
44.70
58.29
72.35
84.63
93.07
96.91
96.83
94.44
91.31
88.12
84.66
80.36
75.02
69.15
63.70
59.47
56.63
54.64
52.66
50.07
46.79
43.19
39.73
36.71
34.10
31.84
30.04
29.11
29.56
31.63
35.07
39.03
42.45
44.40
44.37
42.29
38.33
32.76
25.84
17.93
9.46
0.89
-7.53
-15.89
-24.55
-33.78
-43.52
-53.21
-62.06
-69.38
-74.84
-78.46
-80.45
-80.86
-79.58
-76.49
-71.69
-65.69
-59.27
-53.22
-48.08
-43.93
-40.49
-37.33
-34.08
-30.51
-26.61
-22.49
-18.34
-14.32
-10.50
-6.84
-3.24
0.40
4.05
7.56
10.60
12.88
14.24
14.77
14.79
14.72
14.86
15.28
15.81
16.14
16.00
15.27
13.98
12.33
10.56
8.86
7.30
5.88
4.51
3.08
1.45
-0.48
-2.75
-5.34
-8.10
-10.79
-13.06
-14.56
-15.07
-14.50
-12.96
-10.74
-8.16
-5.51
-2.97
-0.60
1.59
3.59
5.38
6.86
7.95
8.56
8.68
8.36
7.66
6.72
5.69
4.71
3.93
3.40
3.06
2.80
2.40
1.72
0.73
-0.45
-1.63
-2.61
-3.36
-3.91
-4.43
-5.04
-5.85
-6.85
-7.98
-9.13
-10.19
-11.02
-11.47
-11.38
-10.59
-9.05
-6.85
-4.22
-1.46
1.15
3.38
5.14
6.45
7.42
8.17
8.76
9.19
9.41
9.35
9.00
8.45
7.80
7.18
6.65
6.23
5.86
5.47
5.00
4.36
3.54
2.52
1.35
0.12
-1.12
-2.37
-3.75
-5.41
-7.49
-9.91
-12.42
-14.65
-16.28
-17.12
-17.21
-16.69
-15.68
-14.22
-12.30
-9.91
-7.18
-4.35
-1.69
0.62
2.58
4.33
6.01
7.70
9.38
10.93
12.23
13.27
14.07
14.65
15.01
15.02
14.56
13.56
12.03
10.08
7.88
5.60
3.35
1.21
-0.83
-2.80
-4.76
-6.74
-8.75
-10.80
-12.89
-14.97
-16.97
-18.64
-19.77
-20.19
-19.87
-18.92
-17.53
-15.83
-13.83
-11.50
-8.84
-6.07
-3.57
-1.71
-0.68
-0.37
-0.48
-0.67
-0.78
-0.83
-0.92
-1.13
-1.38
-1.51
-1.39
-1.02
-0.52
-0.11
0.05
-0.17
-0.72
-1.47
-2.29
-3.02
-3.64
-4.16
-4.62
-5.04
-5.35
-5.45
-5.25
-4.83
-4.32
-3.95
-3.81
-3.86
-3.88
-3.64
-2.95
-1.81
-0.40
1.03
2.28
3.24
3.91
4.35
4.52
4.34
3.70
2.59
1.19
-0.20
-1.24
-1.72
-1.64
-1.21
-0.71
-0.35
-0.22
-0.27
-0.41
-0.57
-0.76
-1.04
-1.48
-2.07
-2.77
-3.46
-4.06
-4.51
-4.89
-5.30
-5.87
-6.60
-7.37
-7.93
-8.04
-7.50
-6.30
-4.60
-2.67
-0.80
0.80
2.00
2.88
3.55
4.17
4.88
5.78
6.91
8.25
9.68
11.01
11.99
12.41
12.16
11.37
10.35
9.52
9.27
9.76
10.87
12.25
13.49
14.28
14.55
14.49
14.38
14.48
14.92
15.62
16.43
17.23
17.99
18.76
19.64
20.72
22.10
23.89
26.19
29.08
32.46
36.00
39.27
41.83
43.53
44.53
45.22
45.91
46.62
46.99
46.38
44.36
40.86
36.26
31.16
25.99
20.76
15.10
8.60
1.15
-6.89
-14.94
-22.54
-29.65
-36.57
-43.58
-50.57
-56.91
-61.69
-64.24
-64.59
-63.45
-61.91
-60.80
-60.27
-59.76
-58.30
-55.14
-50.07
-43.66
-36.87
-30.60
-25.37
-21.17
-17.69
-14.63
-11.94
-9.82
-8.53
-8.21
-8.70
-9.70
-10.90
-12.16
-13.55
-15.25
-17.43
-20.10
-23.13
-26.36
-29.63
-32.87
-36.15
-39.54
-43.06
-46.55
-49.68
-51.99
-53.00
-52.34
-49.90
-45.80
-40.43
-34.37
-28.24
-22.58
-17.64
-13.39
-9.49
-5.49
-0.99
4.10
9.54
14.83
19.46
23.11
25.80
27.79
29.40
30.84
32.04
32.75
32.80
32.22
31.35
30.65
30.45
30.71
31.02
30.87
29.91
28.19
26.03
23.80
21.65
19.51
17.14
14.42
11.43
8.45
5.74
3.42
1.40
-0.46
-2.27
-3.94
-5.31
-6.14
-6.38
-6.11
-5.59
-5.05
-4.67
-4.49
-4.41
-4.28
-3.98
-3.46
-2.80
-2.11
-1.53
-1.09
-0.73
-0.36
0.09
0.61
1.08
1.40
1.48
1.29
0.90
0.37
-0.20
-0.76
-1.25
-1.61
-1.78
-1.71
-1.40
-0.93
-0.45
-0.11
-0.08
-0.38
-0.96
-1.70
-2.40
-2.89
-3.01
-2.67
-1.89
-0.76
0.57
1.88
3.00
3.85
4.45
4.92
5.41
5.99
6.67
7.39
8.10
8.86
9.72
10.79
12.11
13.57
15.02
16.29
17.30
18.08
18.79
19.62
20.70
22.09
23.71
25.38
26.85
27.88
28.36
28.32
27.96
27.53
27.24
27.14
27.07
26.68
25.55
23.32
19.77
14.75
8.09
-0.43
-10.99
-23.67
-38.23
-54.13
-70.49
-86.35
-100.81
-113.22
-123.16
-130.43
-134.96
-136.87
-136.52
-134.46
-131.32
-127.49
-122.92
-117.09
-109.27
-98.94
-86.16
-71.63
-56.47
-41.74
-28.13
-15.72
-4.24
6.64
17.04
26.77
35.50
43.02
49.37
54.83
59.73
64.22
68.12
70.99
72.30
71.62
68.94
64.64
59.52
54.53
50.41
47.49
45.57
43.98
42.08
39.51
36.39
33.24
30.59
28.73
27.51
26.52
25.38
23.95
22.41
20.99
19.87
18.95
17.96
16.61
14.79
12.62
10.36
8.36
6.83
5.83
5.21
4.75
4.25
3.64
3.02
2.54
2.33
2.45
2.85
3.42
4.08
4.77
5.55
6.46
7.56
8.85
10.26
11.54
12.37
12.40
11.39
9.43
6.86
4.22
1.99
0.40
-0.61
-1.25
-1.69
-2.00
-2.16
-2.29
-2.60
-3.41
-4.88
-6.77
-8.49
-9.38
-9.19
-8.26
-7.43
-7.46
-8.50
-9.92
-10.58
-9.57
-6.69
-2.63
1.56
5.03
7.76
10.25
13.06
16.38
19.71
22.25
23.39
23.09
21.90
20.86
20.81
22.07
24.55
27.83
31.54
35.38
39.44
44.05
50.24
58.85
70.30
84.37
100.22
116.65
132.29
146.36
158.37
168.97
178.60
187.58
196.32
205.62
216.73
230.70
248.23
268.45
289.57
308.00
319.45
320.32
308.80
285.49
252.81
214.98
169.28
116.11
57.95
-0.65
-54.33
-98.84
-130.18
-151.25
-166.36
-179.72
-193.52
-209.45
-227.74
-247.94
-269.56
-292.66
-318.90
-350.38
-388.63
-432.16
-475.81
-511.02
-528.35
-520.87
-486.69
-429.67
-357.10
-277.44
-198.34
-126.58
-68.27
-28.74
-11.33
-13.64
-28.79
-45.99
-54.06
-46.48
-24.04
6.92
38.86
66.56
88.47
105.58
117.49
123.78
122.74
112.49
92.18
62.56
25.81
-15.57
-56.53
-94.41
-128.48
-159.52
-188.48
-215.74
-241.05
-263.76
-287.65
-311.33
-332.24
-346.72
-350.81
-341.93
-320.53
-290.56
-258.14
-228.93
-204.96
-184.36
-164.40
-142.50
-118.05
-92.95
-70.28
-52.42
-39.71
-29.90
-20.71
-10.91
-0.50
9.50
17.82
23.80
27.51
29.23
29.55
28.37
25.25
20.24
14.10
8.20
4.13
3.17
5.83
12.13
21.53
33.64
48.76
67.72
91.17
118.88
149.22
179.53
207.13
230.22
248.82
264.85
281.18
300.56
324.89
354.77
389.32
426.11
460.62
486.52
496.94
486.82
455.46
407.34
350.71
294.28
243.39
198.03
154.18
107.28
56.20
4.92
-39.09
-68.96
-81.86
-80.49
-71.27
-60.93
-53.80
-50.50
-48.88
-46.01
-39.84
-30.14
-18.70
-8.92
-4.63
-9.24
-24.72
-50.85
-85.62
-126.40
-171.53
-221.18
-276.03
-334.78
-392.29
-439.63
-467.11
-468.59
-444.49
-401.86
-351.48
-303.24
-262.61
-230.04
-202.48
-176.49
-150.42
-124.77
-100.96
-79.59
-59.29
-37.00
-9.23
26.25
69.10
115.77
160.45
196.75
219.90
228.41
224.38
212.23
196.85
181.81
168.62
157.25
147.23
138.59
132.02
128.29
127.49
128.78
130.67
131.76
131.39
129.75
127.67
126.04
125.39
125.61
126.13
126.16
125.01
122.42
118.66
114.30
109.86
105.53
101.06
95.96
89.88
82.81
75.25
68.03
61.92
57.31
54.12
51.92
50.22
48.68
47.19
45.78
44.69
44.08
44.03
44.53
45.54
47.05
49.11
51.84
55.43
60.54
67.67
76.93
87.90
99.72
111.32
121.79
130.60
137.49
143.37
148.85
154.07
158.81
162.82
166.15
169.03
171.49
173.03
174.44
176.36
179.51
184.75
192.89
204.29
218.62
234.88
251.84
270.70
292.38
316.51
340.49
359.58
368.39
363.17
343.55
298.99
227.06
131.24
20.30
-94.22
-201.59
-294.46
-369.28
-425.39
-464.03
-485.58
-491.73
-485.37
-470.10
-449.69
-427.28
-404.83
-383.37
-363.34
-343.34
-322.43
-300.35
-277.63
-255.30
-234.35
-215.39
-198.55
-183.77
-169.87
-156.03
-141.93
-127.74
-114.00
-101.27
-89.89
-79.95
-71.39
-63.60
-56.13
-48.75
-41.49
-34.57
-28.20
-22.54
-17.61
-13.38
-9.60
-6.08
-2.69
0.56
3.64
6.47
9.01
11.24
13.23
15.04
16.77
18.50
20.25
22.03
23.79
25.44
26.80
27.70
27.91
27.27
25.71
23.19
19.77
15.60
10.93
6.04
1.26
-3.13
-6.85
-9.71
-11.66
-12.72
-12.96
-12.52
-11.56
-10.23
-8.66
-6.95
-5.13
-3.28
-1.43
0.42
2.27
4.17
6.15
8.24
10.50
13.00
15.63
18.38
21.20
24.12
27.14
30.27
33.59
37.16
41.17
45.40
49.83
54.43
59.24
64.28
69.63
75.32
81.52
88.37
95.52
102.80
110.07
117.27
124.37
131.39
138.38
145.50
152.97
160.33
167.27
173.53
178.83
182.75
184.65
183.57
177.77
170.23
161.66
152.48
142.94
133.27
123.63
114.20
105.13
96.61
88.93
81.64
74.55
67.57
60.73
54.10
47.77
41.83
36.39
31.59
27.02
22.43
17.72
12.91
8.07
3.35
-1.18
-5.47
-9.54
-13.75
-18.35
-23.38
-28.70
-34.04
-39.16
-43.93
-48.44
-52.97
-58.03
-63.99
-70.91
-78.53
-86.35
-93.93
-101.06
-107.97
-115.26
-123.68
-133.82
-145.80
-159.22
-173.39
-187.58
-201.38
-214.87
-228.50
-242.96
-259.10
-277.76
-299.60
-324.49
-351.05
-376.37
-396.45
-407.41
-406.80
-394.65
-373.26
-346.23
-316.95
-287.52
-258.58
-229.90
-201.30
-173.19
-146.50
-122.16
-100.56
-81.43
-64.12
-48.09
-33.21
-19.76
-8.25
0.98
7.99
13.30
17.68
21.89
26.35
31.05
35.58
39.43
42.14
43.52
43.68
42.93
41.73
40.43
39.27
38.21
36.98
35.19
32.53
28.88
24.38
19.40
14.45
10.11
6.90
5.33
5.72
8.21
12.62
18.42
24.84
31.10
36.58
40.97
44.22
46.41
47.59
47.82
47.15
45.72
43.77
41.55
39.22
36.80
34.22
31.43
28.53
25.74
23.38
21.69
20.58
19.66
18.16
15.30
10.53
3.91
-3.84
-11.56
-18.12
-22.83
-25.69
-27.26
-28.33
-29.42
-30.56
-31.29
-30.89
-28.78
-24.68
-18.57
-10.62
-1.12
9.49
20.57
31.30
40.81
48.49
54.11
57.82
60.01
61.05
61.11
60.18
58.29
55.64
52.68
49.96
47.86
46.49
45.59
44.68
43.33
41.19
38.12
34.16
29.41
23.87
17.49
10.19
2.11
-6.20
-13.92
-20.30
-25.01
-28.36
-31.08
-33.82
-36.66
-39.08
-40.20
-39.35
-36.42
-31.86
-26.42
-20.68
-14.86
-8.95
-2.90
3.08
8.62
13.31
16.92
19.48
21.23
22.52
23.68
24.89
26.21
27.56
28.78
29.74
30.33
30.46
30.11
29.21
27.84
26.06
24.06
21.99
20.00
18.20
16.66
15.44
14.57
14.01
13.54
12.84
11.58
9.54
6.77
3.52
0.16
-2.99
-5.82
-8.31
-10.43
-11.89
-12.20
-10.77
-7.26
-1.80
4.89
11.75
17.69
22.10
24.91
26.56
27.65
28.64
29.62
30.34
30.49
29.91
28.72
27.22
25.77
24.59
23.74
23.16
22.68
22.21
21.65
20.90
19.87
18.49
16.71
14.57
12.09
9.38
6.60
3.97
1.70
-0.13
-1.67
-3.31
-5.52
-8.66
-12.70
-17.18
-21.38
-24.64
-26.60
-27.34
-27.13
-26.22
-24.61
-21.94
-17.84
-12.13
-4.99
3.17
11.83
20.73
29.84
39.23
48.87
58.45
67.48
75.50
82.30
88.01
92.89
97.16
100.83
103.70
105.57
106.42
106.29
105.13
102.37
96.88
87.32
72.85
53.92
32.60
12.23
-3.73
-13.28
-16.96
-17.89
-20.57
-28.78
-43.77
-63.68
-84.49
-101.85
-112.69
-116.06
-112.56
-103.39
-89.68
-72.26
-52.11
-30.69
-9.89
8.52
23.43
34.72
43.16
50.02
56.87
65.27
76.25
89.87
104.76
118.13
126.60
127.48
120.03
105.85
88.28
71.03
56.57
45.49
36.48
27.48
16.72
3.48
-11.86
-27.98
-42.98
-54.86
-62.02
-64.19
-63.10
-62.41
-66.46
-77.97
-96.17
-116.67
-133.23
-140.77
-137.85
-127.11
-113.50
-101.56
-93.30
-88.05
-83.67
-78.31
-71.35
-63.35
-55.40
-48.58
-43.79
-41.58
-42.11
-44.58
-47.32
-48.02
-44.86
-37.37
-26.73
-15.25
-5.30
1.73
5.75
7.56
7.97
7.21
4.88
0.56
-5.66
-12.73
-19.01
-22.93
-23.89
-22.74
-21.50
-22.44
-26.92
-34.53
-43.04
-49.21
-50.17
-44.55
-32.99
-17.85
-2.14
11.53
21.74
28.41
32.36
34.68
36.14
36.96
36.90
35.66
33.18
29.78
26.13
22.88
20.38
18.48
16.55
13.83
9.73
4.11
-2.73
-10.17
-17.61
-24.76
-31.66
-38.63
-46.03
-53.98
-62.27
-70.45
-77.98
-84.53
-90.14
-95.07
-99.57
-103.45
-106.00
-106.10
-102.61
-94.65
-81.94
-64.90
-44.63
-22.86
-1.60
17.32
32.88
45.12
55.14
64.39
73.95
83.98
93.73
102.15
108.55
112.96
115.99
118.36
120.37
121.87
122.45
121.80
119.94
117.19
113.94
110.36
106.33
101.39
94.90
86.34
75.52
62.83
49.13
35.44
22.29
9.41
-4.22
-19.71
-37.44
-56.42
-74.45
-88.83
-97.39
-99.17
-94.57
-84.96
-72.00
-57.19
-41.60
-26.02
-11.12
2.35
13.38
20.87
23.94
22.47
17.59
11.71
7.83
8.45
14.44
24.61
36.23
46.14
52.11
53.48
51.19
47.12
43.32
41.44
42.44
46.53
53.31
61.86
70.98
79.51
86.60
91.92
95.78
98.94
102.53
107.75
115.63
126.60
140.16
154.70
167.76
176.87
180.69
179.89
176.94
174.97
175.86
178.91
180.81
177.20
165.04
144.41
118.79
93.55
73.42
60.04
51.20
41.59
25.18
-2.18
-41.03
-88.02
-137.44
-183.55
-222.67
-253.84
-278.12
-296.94
-310.75
-318.89
-320.67
-316.68
-309.09
-300.84
-293.87
-287.67
-279.46
-265.87
-245.08
-218.13
-188.31
-159.14
-131.95
-104.96
-74.35
-36.79
8.19
57.13
103.85
142.00
167.77
181.24
186.01
187.14
189.02
193.73
200.99
209.00
215.91
220.81
223.88
225.64
225.98
223.71
217.36
206.33
191.75
176.18
162.13
150.46
139.84
127.36
110.93
91.19
71.64
57.08
51.37
55.40
66.76
80.81
92.16
96.99
94.10
84.88
71.68
56.48
39.45
18.66
-8.83
-45.95
-92.23
-142.55
-188.13
-219.66
-230.46
-218.14
-184.03
-131.55
-67.09
3.43
74.74
141.49
197.07
233.99
246.60
234.12
201.47
152.82
94.65
34.51
-20.55
-66.48
-103.18
-133.05
-158.74
-181.85
-210.78
-251.03
-302.08
-357.60
-410.09
-455.06
-491.33
-519.53
-540.86
-566.49
-604.88
-657.43
-718.47
-781.28
-843.04
-904.82
-969.33
-975.19
-887.95
-716.77
-509.65
-314.68
-153.01
-21.93
90.31
193.17
289.16
364.75
407.35
414.23
394.34
362.49
331.13
306.57
289.82
279.27
265.45
242.47
211.48
178.04
150.55
134.02
128.58
131.71
140.69
148.86
152.17
150.52
146.09
142.71
142.84
146.23
151.52
157.71
162.48
165.95
170.20
177.17
180.38
177.68
168.93
155.01
137.16
115.90
93.16
77.75
67.37
60.10
53.54
46.68
39.21
31.22
23.78
21.28
28.17
38.03
48.74
57.79
66.05
75.54
88.23
106.20
134.12
174.20
223.44
277.78
329.11
373.05
406.73
428.29
414.94
356.96
261.17
147.12
54.42
-12.87
-57.60
-82.62
-93.22
-89.52
-67.22
-23.93
32.52
92.67
144.48
183.20
207.22
214.54
202.85
173.67
131.25
82.50
36.84
-0.15
-23.61
-33.41
-33.56
-29.74
-23.96
-16.58
-7.88
1.63
8.55
11.50
10.25
5.64
-0.41
-5.18
-7.40
-8.68
-8.46
-9.47
-13.36
-20.55
-30.23
-40.70
-49.95
-57.09
-62.83
-68.83
-77.69
-90.62
-107.19
-125.79
-144.44
-161.54
-176.68
-190.64
-204.79
-221.10
-241.00
-264.98
-292.36
-321.04
-346.76
-363.72
-366.31
-351.48
-320.55
-278.90
-234.26
-194.42
-165.39
-149.20
-144.35
-147.54
-155.23
-164.42
-172.47
-176.87
-176.17
-170.57
-160.10
-144.73
-125.26
-104.64
-88.03
-81.03
-86.57
-103.91
-128.27
-150.59
-161.57
-156.11
-135.49
-105.47
-71.92
-36.51
11.63
74.54
144.03
206.29
250.36
271.95
272.69
258.12
241.40
226.77
214.17
202.81
191.99
181.57
172.03
165.13
158.29
152.93
150.06
149.63
151.12
153.51
155.60
156.23
154.84
151.78
148.91
146.77
144.68
141.42
135.84
127.60
117.39
106.78
97.54
91.54
88.61
87.19
85.36
81.58
75.17
66.17
54.95
42.07
28.70
15.94
4.94
-3.38
-8.87
-12.49
-16.06
-21.55
-30.13
-41.44
-53.90
-65.19
-72.90
-75.31
-71.65
-62.19
-48.09
-30.99
-12.63
5.49
22.48
38.18
53.08
67.82
82.84
97.87
111.93
123.81
132.58
138.14
141.07
142.05
141.18
137.63
129.78
116.08
95.92
70.06
40.22
8.06
-25.50
-60.32
-96.18
-132.06
-165.82
-195.05
-218.22
-235.54
-248.78
-260.21
-271.48
-282.95
-293.71
-301.88
-304.78
-299.21
-281.75
-249.86
-203.11
-144.18
-78.63
-13.38
45.55
94.60
133.01
161.99
183.40
198.91
209.97
218.14
225.18
232.64
241.14
249.96
257.20
260.43
257.49
247.02
228.55
202.32
169.18
130.49
88.05
43.82
-0.61
-44.33
-86.87
-127.75
-166.00
-200.18
-228.98
-251.65
-268.07
-278.08
-280.86
-274.96
-259.29
-234.35
-203.03
-170.10
-140.49
-117.48
-101.78
-92.08
-86.21
-82.23
-78.85
-75.03
-69.77
-62.26
-52.49
-41.64
-31.57
-23.75
-18.32
-13.81
-8.00
0.66
12.14
24.70
35.88
43.87
48.46
50.96
53.32
56.88
61.61
66.21
68.90
68.50
65.14
60.31
56.27
55.19
58.36
65.86
76.79
89.93
104.17
118.72
133.10
146.94
159.91
171.77
182.46
191.92
199.69
204.47
204.32
197.44
183.24
162.85
138.81
114.12
91.38
72.46
58.82
51.76
52.10
59.13
69.65
78.23
78.91
67.71
44.64
13.71
-19.07
-48.55
-72.73
-93.01
-112.57
-134.03
-157.81
-181.96
-203.27
-219.06
-228.33
-231.85
-231.32
-228.15
-222.78
-214.78
-203.73
-190.10
-175.48
-162.10
-151.84
-145.42
-142.06
-139.84
-136.62
-130.71
-121.46
-109.71
-97.53
-87.79
-83.28
-85.86
-95.55
-109.94
-124.26
-132.72
-130.59
-116.04
-91.44
-63.12
-39.64
-29.02
-35.69
-58.20
-88.94
-116.38
-129.10
-120.25
-90.10
-45.70
2.47
45.06
77.39
100.13
117.30
132.99
148.51
162.08
170.80
172.84
168.82
161.39
153.56
147.03
141.57
135.44
126.93
115.49
102.11
88.89
78.12
71.03
67.36
65.42
62.98
58.25
50.67
41.07
31.12
22.52
16.14
11.67
7.83
3.06
-3.68
-12.33
-21.63
-29.56
-34.06
-33.78
-28.46
-19.01
-7.09
5.44
17.15
27.24
35.54
42.21
47.43
51.19
53.27
53.56
52.15
49.52
46.35
43.28
40.74
38.82
37.35
36.02
34.52
32.66
30.33
27.48
24.15
20.37
16.16
11.52
6.46
0.94
-5.12
-11.77
-19.11
-27.11
-35.57
-44.04
-51.75
-57.75
-61.12
-61.11
-57.36
-49.93
-39.39
-26.80
-13.60
-1.39
8.44
15.12
18.61
19.51
18.72
17.02
14.87
12.43
9.82
7.24
5.10
3.76
3.34
3.60
3.97
3.85
2.81
0.75
-2.11
-5.40
-8.70
-11.81
-14.75
-17.72
-20.99
-24.78
-29.16
-34.04
-39.17
-44.12
-48.31
-50.98
-51.33
-48.68
-42.85
-34.24
-23.89
-13.19
-3.42
4.52
10.34
14.25
16.70
18.13
18.86
19.09
18.98
18.73
18.60
18.89
19.74
21.12
22.76
24.26
25.21
25.27
24.27
22.16
19.01
14.90
10.00
4.55
-1.12
-6.62
-11.66
-16.19
-20.42
-24.75
-29.57
-35.04
-40.85
-46.23
-50.12
-51.43
-49.44
-44.01
-35.63
-25.35
-14.37
-3.79
5.65
13.66
20.26
25.53
29.54
32.25
33.56
33.42
31.87
29.05
25.37
21.42
17.96
15.69
14.98
15.67
17.16
18.60
19.25
18.78
17.36
15.46
13.56
11.90
10.35
8.53
5.94
2.14
-3.03
-9.46
-16.56
-23.33
-28.53
-30.90
-29.55
-24.25
-15.45
-4.23
8.04
20.06
30.82
39.72
46.47
50.93
53.00
52.66
50.03
45.53
39.80
33.68
27.95
23.10
19.22
16.09
13.27
10.46
7.58
4.88
2.79
1.62
1.41
1.80
2.14
1.73
0.02
-3.23
-7.95
-13.90
-20.68
-27.73
-34.28
-39.27
-41.59
-40.37
-35.43
-27.31
-17.22
-6.57
3.49
12.33
19.84
26.14
31.29
35.11
37.19
37.17
34.95
30.88
25.73
20.48
16.04
13.00
11.54
11.45
12.22
13.15
13.64
13.25
11.86
9.64
6.91
3.95
0.83
-2.69
-6.92
-12.03
-17.81
-23.53
-28.11
-30.49
-29.95
-26.39
-20.25
-12.38
-3.74
4.78
12.49
18.95
23.80
26.86
28.09
27.61
25.81
23.20
20.38
17.92
16.18
15.28
15.05
15.07
14.76
13.65
11.61
8.87
5.99
3.56
1.91
1.01
0.43
-0.38
-1.94
-4.51
-8.10
-12.50
-17.25
-21.70
-25.06
-26.47
-25.24
-21.09
-14.28
-5.63
3.67
12.37
19.45
24.30
26.77
27.11
25.77
23.26
20.02
16.52
13.16
10.33
8.32
7.25
7.05
7.52
8.40
9.48
10.60
11.66
12.58
13.25
13.52
13.18
12.05
9.98
6.91
2.98
-1.50
-6.12
-10.38
-13.83
-16.09
-16.88
-15.95
-13.24
-8.87
-3.32
2.62
8.00
11.99
14.11
14.38
13.18
11.10
8.70
6.38
4.40
3.00
2.45
2.96
4.66
7.38
10.73
14.11
16.93
18.73
19.25
18.48
16.56
13.78
10.47
6.98
3.66
0.78
-1.52
-3.26
-4.60
-5.67
-6.49
-6.91
-6.62
-5.29
-2.83
0.61
4.53
8.31
11.35
13.24
13.88
13.36
11.98
10.04
7.84
5.65
3.68
2.09
0.99
0.41
0.34
0.57
0.85
0.86
0.36
-0.72
-2.30
-4.18
-6.18
-8.15
-10.09
-12.04
-14.14
-16.45
-19.06
-21.89
-24.75
-27.28
-29.01
-29.48
-28.35
-25.54
-21.26
-16.02
-10.47
-5.21
-0.67
3.00
5.75
7.66
8.71
8.81
7.97
6.34
4.28
2.24
0.63
-0.38
-0.77
-0.73
-0.40
0.10
0.72
1.34
1.74
1.69
0.93
-0.62
-2.96
-6.04
-9.80
-14.22
-19.11
-24.10
-28.53
-31.57
-32.48
-30.92
-27.09
-21.65
-15.58
-9.67
-4.49
-0.23
3.04
5.30
6.40
6.25
4.90
2.70
0.23
-1.85
-3.04
-3.09
-2.08
-0.26
1.95
4.16
5.95
6.96
6.93
5.70
3.28
-0.18
-4.34
-8.71
-12.72
-15.77
-17.45
-17.70
-16.86
-15.59
-14.62
-14.33
-14.64
-15.02
-14.72
-13.12
-10.00
-5.57
-0.44
4.64
9.00
12.21
14.10
14.85
14.89
14.90
15.66
17.96
22.30
28.63
36.25
43.84
49.88
53.04
52.67
49.00
42.93
35.65
28.16
20.95
14.01
7.15
0.28
-6.31
-11.99
-16.09
-18.24
-18.55
-17.65
-16.36
-15.27
-14.46
-13.55
-11.91
-9.13
-5.27
-0.96
2.92
5.59
6.62
6.12
4.49
2.33
0.16
-1.71
-3.09
-3.91
-4.18
-3.94
-3.27
-2.26
-1.05
0.18
1.26
2.00
2.24
1.97
1.33
0.48
-0.41
-1.28
-2.21
-3.38
-4.96
-7.07
-9.69
-12.72
-16.03
-19.48
-22.83
-25.70
-27.56
-27.80
-25.92
-21.71
-15.44
-7.80
0.22
7.68
13.81
18.24
20.93
22.06
21.92
20.78
18.87
16.48
13.83
11.09
8.38
5.74
3.16
0.71
-1.46
-3.18
-4.29
-4.83
-5.02
-5.25
-5.84
-6.94
-8.46
-10.11
-11.55
-12.59
-13.27
-13.87
-14.74
-16.15
-18.03
-20.02
-21.47
-21.75
-20.44
-17.50
-13.17
-7.95
-2.33
3.22
8.36
12.89
16.71
19.84
22.34
24.25
25.49
25.86
25.09
23.08
20.04
16.43
12.87
9.87
7.63
6.10
5.01
4.09
3.18
2.21
1.14
-0.00
-1.20
-2.35
-3.30
-3.91
-4.15
-4.19
-4.33
-4.97
-6.34
-8.50
-11.25
-14.11
-16.44
-17.51
-16.74
-13.81
-8.93
-2.64
4.31
11.42
18.69
26.50
35.30
45.14
55.49
65.33
73.63
79.65
83.09
83.91
82.10
77.62
70.61
61.77
52.39
44.11
38.31
35.61
35.64
37.36
39.54
41.21
41.78
40.89
38.31
33.92
27.90
20.82
13.53
6.81
0.93
-4.59
-10.72
-18.33
-27.53
-37.43
-46.30
-52.35
-54.57
-53.26
-49.87
-46.41
-44.55
-44.87
-46.78
-48.86
-49.59
-48.02
-44.13
-38.71
-33.15
-29.07
-27.94
-30.79
-37.81
-48.11
-59.75
-70.09
-76.64
-77.80
-73.48
-64.98
-54.50
-44.35
-36.32
-31.39
-29.72
-30.91
-34.09
-38.15
-41.83
-43.96
-43.68
-40.68
-35.29
-28.40
-21.16
-14.54
-8.97
-4.20
0.50
5.83
11.95
18.26
23.66
26.99
27.66
25.95
22.77
19.20
16.01
13.50
11.53
9.96
8.75
8.06
8.04
8.68
9.74
10.87
11.82
12.56
13.30
14.28
15.59
17.05
18.25
18.72
18.08
16.28
13.53
10.28
6.97
3.94
1.28
-1.10
-3.44
-6.01
-9.00
-12.45
-16.25
-20.06
-23.43
-25.81
-26.74
-25.91
-23.35
-19.40
-14.64
-9.77
-5.35
-1.74
1.01
2.99
4.36
5.24
5.71
5.80
5.63
5.34
5.11
5.06
5.18
5.39
5.57
5.67
5.73
5.83
6.05
6.31
6.42
6.11
5.16
3.52
1.37
-0.93
-3.00
-4.55
-5.53
-6.10
-6.58
-7.32
-8.52
-10.21
-12.16
-13.95
-15.05
-14.98
-13.47
-10.62
-6.84
-2.74
1.03
4.10
6.36
7.96
9.16
10.15
11.02
11.75
12.30
12.63
12.71
12.50
11.97
11.13
10.05
8.91
7.89
7.11
6.65
6.46
6.46
6.48
6.30
5.72
4.57
2.87
0.82
-1.32
-3.29
-4.99
-6.51
-8.00
-9.59
-11.32
-13.11
-14.85
-16.38
-17.48
-17.87
-17.22
-15.29
-12.05
-7.79
-3.04
1.56
5.52
8.59
10.77
12.20
13.02
13.32
13.16
12.60
11.76
10.81
9.87
8.98
8.12
7.19
6.19
5.23
4.49
4.18
4.32
4.78
5.32
5.64
5.51
4.85
3.67
2.12
0.45
-1.00
-1.91
-2.15
-1.86
-1.50
-1.64
-2.75
-4.89
-7.65
-10.22
-11.72
-11.50
-9.31
-5.47
-0.62
4.44
8.99
12.54
14.87
15.97
16.01
15.25
13.95
12.43
10.97
9.75
8.82
8.08
7.31
6.28
4.89
3.26
1.67
0.40
-0.37
-0.73
-0.92
-1.29
-2.06
-3.29
-4.85
-6.56
-8.22
-9.78
-11.24
-12.61
-13.94
-15.23
-16.50
-17.70
-18.76
-19.42
-19.34
-18.15
-15.66
-11.94
-7.34
-2.47
2.08
5.89
8.72
10.57
11.56
11.82
11.51
10.80
9.86
8.86
7.92
7.15
6.60
6.29
6.18
6.18
6.12
5.80
5.08
3.94
2.46
0.86
-0.70
-2.16
-3.59
-5.22
-7.29
-9.99
-13.31
-17.08
-21.01
-24.78
-28.19
-31.09
-33.43
-34.98
-35.40
-34.17
-30.87
-25.35
-17.93
-9.32
-0.44
7.77
14.61
19.69
22.92
24.55
25.08
25.24
25.80
27.45
30.37
34.13
37.77
40.42
41.99
43.75
48.15
57.68
73.44
93.91
114.89
131.04
138.13
135.13
124.71
112.00
102.35
99.39
104.53
117.59
137.81
163.83
192.75
219.39
236.93
239.49
225.19
197.74
165.28
136.79
117.94
108.94
105.37
101.30
92.55
78.25
60.03
39.92
18.67
-4.52
-30.74
-59.91
-89.91
-117.08
-137.58
-148.95
-151.00
-145.72
-136.25
-125.49
-115.04
-104.97
-94.35
-82.18
-68.13
-52.79
-37.40
-23.43
-11.95
-3.54
1.81
4.56
5.58
6.11
7.58
11.17
17.30
25.49
34.34
41.98
46.64
47.13
43.14
35.40
25.69
16.69
11.39
12.17
19.85
33.06
48.54
62.27
71.12
74.00
72.18
68.28
64.92
63.41
63.28
62.95
60.75
55.91
48.79
40.57
32.37
24.64
17.03
8.61
-1.58
-14.24
-29.56
-47.42
-67.50
-89.41
-112.58
-136.11
-158.63
-178.32
-193.23
-201.64
-202.76
-196.90
-185.58
-171.19
-156.35
-143.32
-133.63
-127.98
-126.16
-127.06
-128.72
-128.81
-125.30
-117.35
-105.53
-91.55
-77.41
-64.59
-53.65
-44.40
-36.52
-29.98
-25.10
-22.32
-21.81
-23.39
-26.72
-31.58
-37.97
-45.90
-55.24
-65.45
-75.63
-84.66
-91.35
-94.81
-94.74
-91.40
-85.52
-77.80
-68.76
-58.86
-48.58
-38.57
-29.27
-20.86
-13.14
-5.94
0.47
5.32
7.88
8.27
8.02
9.64
15.52
26.50
41.29
57.05
70.63
79.79
83.71
82.66
77.35
68.50
56.87
43.36
29.21
15.85
4.45
-4.45
-11.21
-16.89
-22.81
-29.98
-38.61
-48.03
-56.88
-63.66
-67.31
-67.65
-65.40
-61.76
-57.89
-54.51
-51.71
-49.27
-46.97
-44.92
-43.48
-42.97
-43.30
-43.84
-43.49
-40.99
-35.31
-25.92
-12.90
2.96
20.34
37.42
52.31
63.45
70.11
72.62
72.28
70.91
70.30
71.82
76.23
83.67
93.62
104.77
115.10
122.31
124.48
120.79
111.98
100.27
88.57
79.47
74.22
72.28
71.59
69.31
62.88
50.86
33.51
12.59
-9.06
-28.49
-43.45
-52.99
-57.57
-58.70
-58.22
-57.70
-58.06
-59.47
-61.56
-63.66
-65.09
-65.35
-64.17
-61.66
-58.21
-54.42
-50.75
-47.41
-44.32
-41.33
-38.47
-36.00
-34.11
-32.65
-30.92
-27.87
-22.58
-14.82
-5.18
5.03
14.31
21.41
25.53
26.27
23.54
17.42
8.44
-2.39
-13.47
-23.08
-29.95
-33.89
-35.83
-37.28
-39.36
-41.97
-43.60
-42.08
-35.86
-25.11
-11.94
0.35
8.68
11.33
8.40
1.39
-7.78
-17.44
-26.41
-33.65
-37.81
-37.14
-30.02
-15.86
4.16
26.94
48.21
63.64
70.19
66.87
54.83
36.62
15.26
-6.63
-27.11
-44.93
-59.21
-69.22
-74.34
-74.20
-68.83
-58.67
-44.72
-28.43
-11.62
3.87
16.49
25.34
30.18
31.17
28.62
22.82
14.13
3.06
-9.66
-23.27
-37.37
-52.13
-68.06
-85.52
-104.12
-122.70
-139.77
-154.13
-165.32
-173.43
-178.64
-180.89
-179.85
-175.45
-168.18
-159.34
-150.38
-142.04
-133.44
-122.07
-104.92
-80.24
-49.20
-16.06
13.39
34.53
46.09
50.56
52.50
55.86
61.95
69.24
74.91
76.79
74.36
68.27
59.26
47.43
32.49
15.12
-2.14
-15.06
-19.26
-12.34
4.77
27.71
50.35
66.87
73.89
71.19
61.40
48.55
36.33
26.88
20.42
15.98
12.37
8.90
5.51
2.48
-0.11
-2.41
-4.69
-7.00
-9.10
-10.49
-10.76
-9.77
-7.88
-5.82
-4.63
-5.54
-9.69
-17.84
-30.01
-45.26
-61.76
-77.19
-89.33
-96.66
-98.62
-95.56
-88.42
-78.32
-66.20
-52.67
-37.97
-22.20
-5.80
10.20
24.08
34.00
38.79
38.71
35.48
31.65
29.38
29.44
30.92
31.85
30.40
25.88
19.03
11.52
4.95
0.08
-3.33
-6.21
-9.63
-14.33
-20.65
-28.62
-38.13
-48.79
-59.66
-69.01
-74.61
-74.28
-66.82
-52.55
-33.33
-11.86
9.31
28.52
45.17
59.35
71.25
80.80
87.61
91.32
91.96
90.00
86.34
82.03
78.04
75.06
73.31
72.46
71.78
70.42
67.84
64.08
59.68
55.30
51.24
47.23
42.52
36.37
28.41
18.85
8.44
-1.80
-10.79
-17.44
-20.77
-20.01
-14.80
-5.44
7.10
21.62
37.00
52.57
67.97
82.75
96.03
106.55
113.09
115.06
112.91
108.06
102.30
97.08
93.06
90.10
87.64
85.19
82.63
80.14
77.95
75.93
73.59
70.18
64.94
57.56
48.21
37.63
26.83
16.65
7.43
-1.21
-10.26
-20.81
-33.44
-47.72
-61.98
-73.74
-80.39
-80.02
-71.86
-56.42
-35.45
-11.57
12.08
32.39
46.95
54.66
56.06
53.08
48.23
43.62
40.28
38.00
35.92
33.27
29.91
26.32
23.22
21.08
19.80
18.89
17.76
16.07
13.76
11.06
8.30
5.66
3.11
0.39
-2.86
-6.98
-12.13
-18.20
-24.90
-31.85
-38.74
-45.41
-51.78
-57.64
-62.39
-65.05
-64.32
-59.03
-48.46
-32.65
-12.41
10.68
34.59
57.10
76.33
91.06
101.09
107.13
110.54
112.77
114.78
116.85
118.61
119.41
118.78
116.76
113.97
111.45
110.29
111.23
114.44
119.23
124.18
127.42
127.13
122.10
112.27
99.01
84.85
72.71
64.79
61.49
61.01
59.83
54.06
41.01
20.39
-5.50
-32.55
-56.43
-73.83
-83.14
-84.36
-78.38
-66.33
-49.29
-28.51
-5.78
16.29
34.65
46.50
50.09
45.21
33.20
16.41
-2.51
-21.19
-37.82
-51.23
-60.77
-66.22
-67.79
-66.15
-62.55
-58.90
-57.65
-61.33
-71.75
-89.22
-112.00
-136.50
-158.41
-174.19
-182.27
-183.39
-179.98
-174.82
-169.93
-166.02
-162.65
-158.88
-153.74
-146.43
-136.20
-122.36
-104.33
-82.01
-55.99
-27.61
1.38
29.24
54.63
76.76
95.22
109.72
119.93
125.46
126.20
122.61
115.89
107.80
100.22
94.60
91.51
90.65
91.04
91.44
90.67
87.77
82.17
73.76
63.11
51.48
40.63
32.18
26.97
24.52
23.09
20.23
13.63
1.96
-14.65
-34.63
-55.34
-73.73
-86.99
-93.23
-91.81
-83.53
-70.32
-54.63
-38.72
-24.19
-11.89
-2.37
3.70
5.24
1.05
-9.48
-25.60
-44.92
-63.62
-77.47
-82.98
-78.31
-63.70
-41.34
-14.72
12.10
35.28
51.89
60.36
60.72
54.53
44.49
33.78
25.22
20.63
20.40
23.49
27.81
30.84
30.48
25.80
17.36
7.11
-2.42
-8.88
-10.94
-8.48
-2.46
5.76
14.95
24.29
33.30
41.54
48.22
52.19
52.18
47.37
37.98
25.54
12.81
2.96
-1.44
0.43
7.31
16.24
23.77
27.36
26.38
22.09
16.92
13.16
12.00
13.17
15.37
17.12
17.46
16.26
14.04
11.53
9.27
7.45
5.98
4.62
3.01
0.56
-3.60
-10.39
-20.27
-32.74
-46.13
-57.97
-65.99
-69.15
-68.30
-66.11
-66.12
-71.26
-82.49
-98.15
-114.32
-126.10
-129.28
-121.76
-104.19
-79.66
-52.63
-27.61
-7.98
4.70
10.59
11.14
8.33
4.16
0.31
-1.90
-1.53
1.83
7.76
14.88
21.20
25.03
26.05
25.87
27.39
33.34
44.55
59.19
73.69
84.61
90.60
92.85
94.06
96.58
101.06
106.37
110.74
113.05
113.41
112.59
110.95
107.79
101.55
90.90
75.70
57.59
39.40
24.10
13.67
8.46
7.35
8.34
9.29
8.54
5.18
-0.91
-9.27
-19.06
-29.12
-38.05
-44.24
-46.25
-43.21
-35.30
-23.94
-11.59
-0.94
5.82
7.73
5.32
0.26
-5.31
-9.51
-11.25
-10.41
-7.61
-3.89
-0.27
2.56
4.24
4.76
4.24
2.85
0.78
-1.72
-4.32
-6.57
-8.16
-8.98
-9.28
-9.54
-10.37
-12.17
-15.04
-18.77
-22.88
-26.86
-30.26
-32.75
-34.14
-34.40
-33.50
-31.45
-28.18
-23.67
-18.02
-11.61
-5.10
0.64
4.77
6.87
7.02
5.84
4.24
3.05
2.77
3.45
4.70
5.94
6.68
6.67
5.98
4.93
3.91
3.20
2.91
2.85
2.72
2.16
0.87
-1.34
-4.47
-8.38
-12.69
-16.78
-19.98
-21.64
-21.34
-19.08
-15.24
-10.50
-5.63
-1.22
2.41
5.26
7.54
9.52
11.33
12.95
14.21
14.88
14.83
14.08
12.81
11.26
9.66
8.21
6.93
5.84
4.83
3.76
2.45
0.80
-1.18
-3.36
-5.51
-7.49
-9.27
-10.98
-12.74
-14.55
-16.13
-17.04
-16.86
-15.37
-12.69
-9.22
-5.43
-1.72
1.70
4.73
7.29
9.27
10.52
10.90
10.40
9.16
7.48
5.78
4.40
3.53
3.09
2.86
2.59
2.13
1.55
1.04
0.80
0.85
1.01
0.98
0.51
-0.45
-1.77
-3.20
-4.46
-5.40
-5.90
-5.83
-4.97
-3.15
-0.27
3.58
8.08
12.79
17.28
21.27
24.63
27.33
29.34
30.58
30.96
30.41
29.14
27.48
25.97
25.14
25.30
26.34
27.77
28.85
28.82
27.20
23.98
19.62
14.93
10.74
7.76
6.33
6.41
7.72
9.91
12.69
15.83
19.11
22.03
23.90
23.92
21.46
16.34
8.93
-0.08
-9.96
-20.36
-31.37
-43.48
-57.22
-72.92
-90.44
-109.18
-128.28
-146.77
-163.87
-179.05
-191.97
-202.37
-210.07
-214.93
-217.07
-216.87
-214.81
-211.24
-206.15
-199.10
-189.35
-176.09
-158.66
-136.89
-111.34
-83.32
-54.77
-27.70
-3.56
17.38
36.16
54.92
76.01
101.01
129.90
160.70
189.88
213.21
227.20
230.25
223.26
209.48
193.32
178.77
168.15
161.56
157.51
154.10
150.14
145.54
140.70
135.59
129.09
119.27
104.41
84.22
60.47
36.58
16.30
2.27
-4.68
-5.30
-0.95
7.31
18.95
33.52
49.98
66.36
80.22
89.59
93.89
94.38
93.66
94.85
100.43
111.36
126.66
143.65
158.54
167.36
166.94
155.71
134.03
104.14
69.72
35.21
4.98
-17.43
-30.01
-32.45
-26.11
-13.68
1.39
15.50
25.60
29.88
28.15
21.89
13.58
5.69
-0.27
-4.33
-7.70
-11.91
-17.87
-25.43
-33.61
-41.45
-48.68
-55.92
-64.14
-73.97
-85.22
-96.98
-108.23
-118.50
-128.10
-137.83
-148.29
-159.25
-169.46
-177.06
-180.47
-179.08
-173.57
-165.58
-156.80
-148.21
-139.76
-130.53
-119.48
-106.13
-90.80
-74.44
-58.24
-43.16
-29.86
-18.90
-10.87
-6.44
-6.04
-9.47
-15.70
-23.01
-29.37
-33.03
-32.96
-29.10
-22.47
-14.94
-8.84
-6.17
-7.84
-13.20
-20.12
-25.81
-27.96
-25.69
-19.80
-12.31
-5.54
-1.23
-0.07
-1.87
-5.81
-10.78
-15.50
-18.68
-19.38
-17.44
-13.69
-9.86
-7.98
-9.60
-15.21
-24.04
-34.27
-43.64
-50.12
-52.56
-51.07
-46.98
-42.37
-39.18
-38.36
-39.52
-41.15
-41.54
-39.68
-35.72
-30.75
-26.07
-22.47
-19.99
-18.22
-16.79
-15.69
-15.22
-15.58
-16.47
-16.98
-15.93
-12.38
-6.17
2.00
10.75
18.62
24.58
28.32
30.15
30.75
30.72
30.43
29.91
29.06
27.80
26.22
24.59
23.28
22.56
22.58
23.28
24.41
25.71
27.05
28.46
30.17
32.41
35.27
38.58
41.94
44.82
46.85
47.96
48.54
49.37
51.37
55.32
61.49
69.59
78.75
87.81
95.61
101.24
104.18
104.37
102.20
98.53
94.54
91.32
89.46
88.55
87.00
82.51
72.92
57.24
36.22
12.18
-11.91
-33.45
-51.01
-64.55
-74.81
-82.71
-88.80
-93.14
-95.49
-95.60
-93.36
-88.70
-81.65
-72.30
-61.03
-48.61
-36.25
-25.41
-17.43
-13.27
-13.23
-16.98
-23.65
-32.13
-41.21
-49.82
-57.14
-62.63
-66.16
-67.97
-68.58
-68.60
-68.58
-68.73
-68.87
-68.63
-67.61
-65.64
-62.88
-59.70
-56.59
-53.91
-51.80
-50.17
-48.72
-47.01
-44.58
-41.06
-36.31
-30.49
-23.95
-17.18
-10.61
-4.57
0.77
5.27
8.80
11.24
12.56
12.87
12.40
11.43
10.14
8.56
6.66
4.45
2.19
0.21
-1.12
-1.66
-1.59
-1.29
-1.26
-1.83
-3.13
-5.12
-7.61
-10.32
-12.81
-14.50
-14.77
-13.19
-9.71
-4.75
0.93
6.54
11.47
15.45
18.50
20.79
22.48
23.64
24.30
24.45
24.10
23.34
22.16
20.61
18.75
16.68
14.56
12.59
10.91
9.61
8.68
8.04
7.61
7.23
6.72
5.82
4.29
2.06
-0.64
-3.18
-4.70
-4.38
-1.89
2.49
7.88
13.19
17.54
20.55
22.35
23.32
23.79
23.88
23.44
22.33
20.55
18.41
16.33
14.73
13.75
13.23
12.84
12.22
11.22
9.93
8.64
7.57
6.81
6.16
5.39
4.26
2.72
0.86
-1.21
-3.36
-5.46
-7.32
-8.54
-8.61
-7.13
-4.04
0.24
4.97
9.29
12.60
14.73
15.82
16.24
16.23
15.89
15.19
14.14
12.90
11.69
10.76
10.19
9.83
9.35
8.40
6.85
4.83
2.73
0.99
-0.11
-0.60
-0.79
-1.10
-1.85
-3.13
-4.83
-6.69
-8.41
-9.72
-10.32
-9.86
-8.07
-4.88
-0.58
4.27
9.04
13.22
16.51
18.90
20.58
21.80
22.49
22.45
21.54
19.96
18.30
17.32
17.60
19.26
21.85
24.20
25.16
24.27
22.09
20.05
19.68
21.99
26.99
33.80
40.15
43.80
43.76
41.00
37.91
37.11
40.50
48.57
60.67
73.42
83.12
87.95
89.04
89.37
91.91
98.71
110.74
128.83
150.16
170.44
185.33
191.32
185.53
166.37
135.32
97.64
61.87
30.97
2.70
-28.76
-69.14
-121.92
-187.23
-261.85
-341.25
-403.40
-431.16
-421.92
-389.60
-350.12
-308.80
-260.83
-199.63
-132.71
-60.78
6.24
55.70
79.30
76.70
53.72
18.17
-20.98
-56.39
-80.74
-92.84
-94.56
-88.66
-77.32
-62.14
-44.66
-26.09
-7.45
11.66
28.93
41.96
50.18
55.32
60.29
67.19
76.43
86.88
97.75
107.23
114.29
119.33
123.82
129.26
136.31
144.74
153.76
162.88
171.25
178.22
183.52
187.14
189.04
189.04
187.00
182.99
177.56
171.09
163.59
154.49
142.90
128.17
110.47
91.06
71.84
54.70
40.84
30.46
23.02
17.57
13.18
9.12
4.84
-0.09
-5.96
-12.89
-20.70
-28.95
-37.04
-44.41
-50.64
-55.47
-58.76
-60.51
-60.79
-59.96
-58.60
-57.40
-56.87
-57.11
-57.71
-57.98
-57.31
-55.48
-52.77
-49.72
-46.90
-44.64
-42.99
-41.83
-41.07
-40.66
-40.62
-40.87
-41.22
-41.48
-41.54
-41.48
-41.44
-41.54
-41.67
-41.55
-40.81
-39.24
-36.92
-34.25
-31.80
-30.19
-29.78
-30.66
-32.50
-34.76
-36.88
-38.50
-39.53
-40.12
-40.35
-39.99
-38.45
-35.03
-29.38
-21.80
-13.32
-5.25
1.21
5.53
7.82
8.60
8.39
7.49
6.03
4.09
1.95
0.03
-1.24
-1.70
-1.54
-1.14
-0.96
-1.22
-1.88
-2.70
-3.47
-4.17
-5.00
-6.24
-8.09
-10.50
-13.25
-16.09
-18.94
-21.85
-24.96
-28.22
-31.32
-33.74
-35.01
-34.90
-33.57
-31.52
-29.32
-27.38
-25.79
-24.26
-22.39
-19.90
-16.81
-13.57
-10.86
-9.29
-9.11
-10.12
-11.74
-13.34
-14.42
-14.83
-14.70
-14.29
-13.91
-13.78
-14.05
-14.76
-15.86
-17.21
-18.58
-19.81
-20.89
-22.03
-23.67
-26.28
-30.09
-34.95
-40.27
-45.19
-48.82
-50.49
-49.91
-47.26
-43.03
-37.87
-32.43
-27.14
-22.23
-17.73
-13.62
-9.88
-6.55
-3.73
-1.50
0.08
1.05
1.45
1.37
0.90
0.19
-0.47
-0.76
-0.34
1.00
3.27
6.29
9.72
13.14
16.07
18.08
18.81
18.06
15.84
12.44
8.35
4.23
0.69
-1.77
-2.86
-2.53
-0.91
1.70
4.79
7.83
10.24
11.62
11.83
11.04
9.69
8.24
7.08
6.42
6.29
6.69
7.56
8.78
10.11
11.16
11.53
10.95
9.52
7.65
5.89
4.63
3.92
3.46
2.83
1.67
-0.11
-2.39
-5.07
-8.11
-11.55
-15.27
-18.92
-21.75
-22.94
-21.87
-18.40
-12.92
-6.23
0.79
7.41
13.14
17.71
20.93
22.67
22.81
21.43
18.80
15.42
11.86
8.67
6.26
4.75
3.97
3.53
2.98
2.02
0.58
-1.12
-2.73
-3.93
-4.61
-4.97
-5.45
-6.59
-8.83
-12.33
-16.90
-22.08
-27.13
-31.25
-33.69
-33.94
-31.86
-27.74
-22.18
-15.91
-9.58
-3.60
1.85
6.70
10.82
13.91
15.52
15.21
12.86
8.78
3.82
-1.02
-4.91
-7.49
-9.03
-10.20
-11.78
-14.18
-17.34
-20.71
-23.61
-25.57
-26.57
-27.03
-27.52
-28.47
-30.01
-31.96
-34.08
-36.08
-37.72
-38.66
-38.26
-35.73
-30.25
-21.38
-9.21
5.62
22.21
39.75
57.68
75.58
92.84
108.50
121.26
129.85
133.42
131.85
125.72
116.01
103.77
89.97
75.43
60.94
47.29
35.12
24.85
16.53
10.00
4.99
1.23
-1.49
-3.50
-5.25
-7.29
-10.06
-13.63
-17.60
-21.03
-22.89
-22.32
-19.08
-13.50
-6.43
1.24
8.77
15.68
21.68
26.45
29.53
30.30
28.19
22.87
14.34
3.00
-10.43
-24.96
-39.37
-52.34
-62.67
-69.61
-73.02
-73.51
-72.19
-70.33
-68.88
-68.20
-68.16
-68.28
-68.22
-67.96
-67.86
-68.42
-70.04
-72.71
-75.96
-78.97
-80.67
-80.04
-76.22
-68.69
-57.40
-42.86
-26.11
-8.58
8.29
23.29
35.62
44.92
51.15
54.60
55.81
55.68
55.30
55.32
56.25
58.33
61.38
64.79
67.81
70.02
71.61
73.24
75.26
77.98
81.64
86.17
91.10
95.64
99.16
101.53
103.27
104.44
105.86
109.26
116.50
128.59
145.35
165.81
188.72
213.04
235.38
254.29
271.20
288.63
307.08
323.45
332.01
326.55
302.87
254.67
182.23
93.78
0.84
-88.22
-170.87
-248.42
-322.89
-394.81
-471.99
-557.16
-644.50
-724.64
-791.69
-845.77
-890.52
-930.26
-968.19
-1017.17
-1081.81
-1151.24
-1205.67
-1227.87
-1209.95
-1153.23
-1065.18
-881.65
-590.92
-241.17
92.66
359.85
549.35
672.19
744.20
779.41
789.40
778.85
747.95
706.66
668.85
643.00
628.90
621.21
614.16
604.77
585.51
546.07
492.63
437.61
390.22
353.17
324.89
302.63
284.28
263.74
237.73
209.86
185.41
166.32
151.18
137.82
124.89
112.17
98.12
82.38
68.13
59.52
58.47
65.25
79.33
97.71
108.65
97.37
54.83
-14.58
-96.60
-176.67
-243.94
-291.89
-319.69
-331.24
-331.61
-325.08
-320.22
-316.48
-315.60
-319.89
-328.20
-336.10
-336.66
-321.91
-285.77
-226.66
-147.62
-52.19
41.83
116.38
161.47
177.50
172.18
154.85
132.53
115.56
101.95
88.64
75.68
64.61
56.97
53.56
54.54
60.00
64.03
63.74
58.93
52.63
48.80
50.40
58.17
70.69
85.27
99.22
110.34
117.57
121.45
123.17
123.64
123.10
121.24
117.39
111.03
102.16
91.41
80.24
70.27
62.51
56.85
52.10
46.35
37.69
25.14
8.82
-9.86
-28.69
-45.26
-57.74
-65.53
-69.76
-72.85
-77.45
-85.18
-95.71
-106.66
-114.70
-117.00
-112.35
-101.35
-85.65
-67.05
-47.21
-27.75
-10.24
4.12
15.21
24.79
36.18
52.71
75.53
102.29
127.59
145.21
150.76
143.34
125.49
101.84
77.19
55.27
38.28
27.05
21.30
19.87
20.73
21.29
18.85
11.49
-1.33
-18.66
-38.35
-57.60
-73.57
-84.05
-87.81
-84.84
-76.27
-63.97
-50.12
-36.34
-23.34
-10.75
2.05
15.32
28.73
41.47
52.47
60.86
66.34
69.29
71.12
72.97
75.52
78.95
83.44
88.91
94.95
101.12
106.73
111.95
116.60
120.45
123.66
127.29
132.23
138.38
145.00
150.00
151.47
146.45
131.95
106.85
73.46
36.39
0.80
-28.31
-56.75
-86.62
-118.64
-154.67
-197.46
-247.09
-301.83
-356.38
-400.18
-422.80
-417.05
-383.19
-321.13
-239.07
-147.99
-58.09
14.14
57.13
69.54
60.12
47.17
36.52
30.04
29.25
35.13
43.33
51.80
58.51
62.10
61.67
56.47
47.50
37.02
26.84
17.62
10.86
7.45
7.55
10.44
14.18
17.58
20.42
22.87
25.21
28.87
34.97
43.82
54.44
64.50
71.93
75.40
74.51
69.90
63.52
57.40
52.71
49.46
46.62
43.21
38.63
32.87
26.42
20.24
15.33
12.38
11.72
13.06
15.80
18.90
21.19
21.73
20.20
17.00
13.05
9.39
6.60
4.50
2.04
-2.13
-9.08
-18.92
-30.47
-41.64
-50.25
-55.13
-56.73
-57.02
-58.40
-62.44
-69.13
-77.10
-84.87
-91.96
-99.26
-108.09
-118.83
-130.04
-138.95
-143.12
-141.66
-135.23
-124.49
-108.63
-85.22
-52.23
-10.76
33.58
71.74
95.02
99.46
87.91
68.80
52.30
45.80
51.07
64.28
78.43
86.90
86.17
76.83
62.55
47.87
35.89
27.15
20.07
12.81
5.16
-0.80
-1.81
4.39
17.26
33.27
47.36
55.48
56.37
51.94
45.90
41.57
40.39
41.53
42.63
41.48
37.36
31.39
26.00
23.58
25.26
30.32
36.59
41.43
43.00
40.75
35.34
27.79
18.75
8.20
-4.22
-18.62
-34.40
-50.23
-64.55
-76.09
-84.13
-88.49
-89.12
-85.87
-78.52
-67.17
-52.48
-35.83
-18.97
-3.59
9.16
18.83
25.55
29.64
31.23
30.28
26.77
21.18
14.57
8.32
3.58
0.62
-1.33
-3.83
-8.39
-15.78
-25.67
-36.81
-47.67
-56.99
-64.27
-69.65
-73.67
-76.86
-79.65
-82.43
-85.67
-89.83
-95.14
-101.23
-106.94
-110.53
-110.28
-105.14
-95.23
-81.78
-66.64
-51.52
-37.57
-25.15
-14.14
-4.35
4.19
11.15
16.13
18.91
19.64
18.89
17.45
16.02
14.98
14.35
13.76
12.82
11.23
8.96
6.17
3.08
-0.13
-3.42
-6.90
-10.75
-15.14
-20.27
-26.22
-33.06
-40.57
-48.32
-55.46
-60.79
-63.07
-61.24
-54.90
-44.42
-30.92
-15.97
-1.09
12.57
24.53
34.83
43.76
51.55
58.13
63.31
66.84
68.61
68.68
67.24
64.51
60.73
56.15
51.14
46.11
41.41
37.21
33.37
29.63
25.69
21.42
16.86
12.04
6.88
1.14
-5.54
-13.37
-22.26
-31.63
-40.48
-47.40
-50.95
-49.99
-43.99
-33.24
-18.84
-2.39
14.45
30.32
44.36
56.19
65.74
72.96
77.80
80.16
80.04
77.65
73.49
68.30
62.90
57.93
53.69
50.04
46.39
42.09
36.62
29.89
22.31
14.52
7.20
0.74
-4.88
-10.11
-15.53
-21.82
-29.40
-38.36
-48.31
-58.31
-66.83
-71.87
-71.55
-64.57
-51.02
-32.39
-11.35
9.20
27.04
41.25
52.16
60.76
67.91
73.81
77.99
79.80
78.94
75.82
71.39
66.73
62.56
58.93
55.37
51.14
45.77
39.20
31.94
24.70
18.06
12.25
7.07
2.04
-3.30
-9.32
-16.21
-23.96
-32.50
-41.42
-49.91
-56.72
-60.34
-59.41
-53.27
-42.21
-27.51
-11.00
5.48
20.48
33.21
43.44
51.24
56.81
60.27
61.70
61.22
59.08
55.69
51.62
47.36
43.26
39.41
35.62
31.61
27.19
22.37
17.38
12.48
7.80
3.17
-1.85
-7.68
-14.57
-22.33
-30.43
-38.16
-45.08
-51.19
-57.07
-63.67
-71.85
-81.78
-92.78
-103.24
-111.04
-114.22
-111.52
-102.62
-88.11
-69.27
-47.87
-25.87
-5.29
12.19
25.51
34.59
40.20
43.57
45.79
47.44
48.52
48.78
48.13
46.84
45.47
44.44
43.81
43.15
41.83
39.40
35.86
31.58
27.07
22.68
18.39
13.89
8.78
2.91
-3.53
-9.99
-15.89
-20.86
-24.97
-28.78
-33.07
-38.57
-45.61
-53.98
-62.93
-71.28
-77.72
-81.08
-80.59
-76.04
-67.79
-56.70
-43.87
-30.36
-17.03
-4.36
7.47
18.49
28.68
37.85
45.67
51.72
55.72
57.61
57.62
56.27
54.13
51.71
49.33
47.15
45.11
43.14
41.16
39.10
36.96
34.65
32.00
28.75
24.62
19.50
13.53
7.16
0.95
-4.59
-9.24
-13.12
-16.64
-20.29
-24.48
-29.47
-35.32
-41.92
-48.89
-55.64
-61.25
-64.67
-65.02
-61.85
-55.39
-46.46
-36.19
-25.63
-15.52
-6.13
2.57
10.67
18.12
24.68
30.00
33.79
35.96
36.71
36.49
35.80
35.07
34.50
34.01
33.36
32.28
30.65
28.54
26.15
23.69
21.29
18.93
16.47
13.68
10.39
6.47
1.96
-2.91
-7.78
-12.28
-16.17
-19.50
-22.53
-25.68
-29.30
-33.59
-38.49
-43.77
-49.03
-53.67
-56.98
-58.08
-56.26
-51.19
-43.07
-32.65
-20.95
-8.88
2.96
14.24
24.66
33.69
40.56
44.55
45.38
43.45
39.85
35.88
32.56
30.35
29.14
28.50
28.07
27.68
27.38
27.18
26.97
26.44
25.29
23.37
20.77
17.74
14.59
11.60
8.81
6.13
3.34
0.27
-3.18
-6.93
-10.82
-14.66
-18.33
-21.91
-25.59
-29.48
-33.47
-37.09
-39.55
-40.04
-37.96
-33.25
-26.42
-18.35
-10.04
-2.32
4.33
9.78
14.14
17.57
20.23
22.20
23.55
24.36
24.69
24.66
24.37
23.83
23.06
22.02
20.72
19.24
17.68
16.19
14.80
13.48
12.05
10.27
7.92
4.89
1.22
-2.82
-6.85
-10.44
-13.32
-15.55
-17.42
-19.45
-22.12
-25.69
-30.11
-34.93
-39.40
-42.64
-43.82
-42.38
-38.26
-31.86
-24.00
-15.67
-7.70
-0.63
5.38
10.46
14.83
18.63
21.87
24.45
26.24
27.21
27.46
27.16
26.56
25.83
25.02
24.12
23.07
21.90
20.69
19.49
18.32
17.05
15.52
13.55
11.06
8.10
4.82
1.39
-1.97
-5.08
-7.87
-10.36
-12.69
-15.08
-17.82
-21.14
-25.11
-29.52
-33.82
-37.28
-39.04
-38.53
-35.51
-30.34
-23.76
-16.68
-9.88
-3.77
1.56
6.22
10.32
13.82
16.58
18.47
19.52
19.97
20.18
20.48
21.04
21.76
22.36
22.56
22.17
21.23
19.91
18.47
17.11
15.82
14.49
12.89
10.87
8.28
5.17
1.64
-2.06
-5.65
-8.77
-11.23
-13.02
-14.33
-15.53
-16.97
-18.91
-21.43
-24.38
-27.41
-30.02
-31.62
-31.65
-29.67
-25.57
-19.71
-12.85
-5.95
0.13
4.88
8.29
10.68
12.48
13.99
15.28
16.26
16.84
17.06
17.11
17.21
17.44
17.68
17.67
17.13
16.05
14.60
13.14
11.98
11.20
10.59
9.76
8.35
6.20
3.40
0.24
-2.91
-5.74
-8.11
-10.12
-11.99
-14.05
-16.58
-19.72
-23.46
-27.53
-31.46
-34.64
-36.41
-36.30
-34.12
-30.04
-24.60
-18.55
-12.61
-7.34
-3.01
0.38
3.00
5.10
6.86
8.43
9.78
10.82
11.43
11.58
11.32
10.87
10.42
10.03
9.61
8.91
7.72
5.93
3.66
1.19
-1.27
-3.62
-5.94
-8.34
-10.87
-13.46
-15.96
-18.22
-20.20
-21.96
-23.59
-25.20
-26.86
-28.59
-30.43
-32.36
-34.25
-35.81
-36.59
-36.06
-33.77
-29.62
-23.85
-17.04
-9.98
-3.38
2.28
6.84
10.43
13.27
15.56
17.37
18.68
19.48
19.85
19.97
20.01
20.10
20.23
20.28
20.09
19.61
18.88
18.09
17.38
16.78
16.15
15.22
13.71
11.54
8.83
5.91
3.21
1.08
-0.33
-1.05
-1.31
-1.37
-1.54
-2.06
-3.06
-4.46
-5.98
-7.12
-7.28
-5.94
-2.91
1.63
7.11
12.77
17.90
22.04
25.09
27.22
28.75
29.98
31.03
31.87
32.36
32.33
31.72
30.61
29.16
27.53
25.83
24.14
22.46
20.87
19.39
18.05
16.83
15.56
13.97
11.85
9.04
5.63
1.87
-1.86
-5.24
-8.08
-10.43
-12.49
-14.50
-16.70
-19.16
-21.81
-24.42
-26.60
-27.91
-27.88
-26.20
-22.82
-18.09
-12.65
-7.34
-2.85
0.35
2.20
3.01
3.26
3.39
3.69
4.20
4.77
5.24
5.49
5.54
5.46
5.31
5.01
4.47
3.63
2.50
1.23
-0.01
-1.12
-2.11
-3.13
-4.36
-5.87
-7.63
-9.44
-11.10
-12.44
-13.45
-14.25
-15.08
-16.24
-17.98
-20.39
-23.24
-26.02
-28.00
-28.50
-27.09
-23.82
-19.18
-13.95
-8.97
-4.85
-1.88
-0.02
0.98
1.52
1.96
2.55
3.40
4.46
5.50
6.29
6.67
6.59
6.13
5.40
4.54
3.63
2.74
1.98
1.46
1.17
0.94
0.46
-0.60
-2.42
-4.91
-7.71
-10.41
-12.71
-14.57
-16.19
-17.89
-19.92
-22.37
-25.13
-27.96
-30.57
-32.55
-33.47
-32.83
-30.25
-25.65
-19.38
-12.17
-4.99
1.27
6.05
9.25
11.19
12.36
13.21
14.04
14.92
15.76
16.51
17.10
17.52
17.72
17.64
17.21
16.38
15.18
13.75
12.30
11.00
9.92
8.96
7.94
6.67
5.02
3.08
0.97
-1.15
-3.22
-5.26
-7.39
-9.73
-12.37
-15.34
-18.53
-21.72
-24.52
-26.47
-27.12
-26.15
-23.59
-19.75
-15.22
-10.60
-6.43
-2.97
-0.26
1.78
3.30
4.40
5.13
5.56
5.72
5.62
5.28
4.69
3.84
2.75
1.53
0.26
-0.98
-2.16
-3.32
-4.53
-5.86
-7.36
-9.01
-10.75
-12.49
-14.07
-15.30
-16.02
-16.17
-15.86
-15.38
-15.17
-15.59
-16.89
-19.08
-21.84
-24.70
-27.03
-28.24
-27.93
-25.95
-22.45
-17.81
-12.50
-7.03
-1.85
2.68
6.33
9.02
10.82
11.90
12.46
12.75
12.93
13.08
13.29
13.59
14.05
14.65
15.30
15.88
16.22
16.27
16.12
15.92
15.81
15.73
15.46
14.65
13.02
10.57
7.60
4.66
2.24
0.55
-0.55
-1.49
-2.77
-4.71
-7.35
-10.41
-13.42
-15.77
-16.93
-16.41
-13.95
-9.60
-3.72
3.00
9.75
15.81
20.73
24.40
26.96
28.68
29.77
30.37
30.55
30.40
30.01
29.54
29.07
28.61
28.08
27.34
26.39
25.24
24.01
22.74
21.39
19.80
17.76
15.17
12.11
8.83
5.66
2.84
0.47
-1.54
-3.37
-5.30
-7.55
-10.27
-13.34
-16.42
-18.87
-19.91
-18.89
-15.55
-10.27
-3.87
2.54
7.98
11.91
14.31
15.58
16.21
16.54
16.70
16.61
16.15
15.30
14.22
13.07
12.08
11.30
10.77
10.44
10.25
10.07
9.67
8.80
7.16
4.72
1.67
-1.53
-4.40
-6.61
-8.14
-9.33
-10.70
-12.72
-15.65
-19.29
-23.10
-26.26
-27.97
-27.73
-25.47
-21.60
-16.81
-11.74
-6.90
-2.44
1.78
6.23
11.49
17.94
25.33
32.51
37.49
38.08
32.82
21.84
7.05
-8.35
-21.02
-28.67
-30.66
-28.00
-22.60
-16.53
-11.37
-8.04
-6.90
-7.96
-10.97
-15.49
-20.96
-26.65
-31.85
-36.04
-39.06
-41.24
-43.22
-45.70
-49.00
-52.81
-56.12
-57.59
-56.10
-51.23
-43.51
-34.22
-24.88
-16.66
-10.02
-4.77
-0.34
3.78
7.80
11.51
14.54
16.57
17.53
17.60
17.18
16.65
16.32
16.32
16.61
16.98
17.13
16.76
15.66
13.78
11.22
8.15
4.81
1.38
-2.03
-5.40
-8.81
-12.43
-16.44
-20.98
-26.01
-31.23
-36.05
-39.67
-41.37
-40.67
-37.55
-32.47
-26.18
-19.51
-13.18
-7.62
-2.95
0.94
4.29
7.32
10.19
12.90
15.35
17.43
19.06
20.29
21.23
22.03
22.73
23.30
23.56
23.36
22.60
21.33
19.70
17.91
16.11
14.37
12.67
10.96
9.17
7.27
5.23
2.98
0.35
-2.78
-6.44
-10.36
-13.97
-16.50
-17.16
-15.43
-11.27
-5.14
2.19
9.81
16.92
23.01
27.85
31.48
34.01
35.61
36.34
36.30
35.60
34.47
33.19
32.05
31.23
30.69
30.29
29.83
29.19
28.34
27.35
26.22
24.88
23.19
20.97
18.22
15.06
11.71
8.38
5.14
1.85
-1.74
-5.86
-10.53
-15.41
-19.85
-23.07
-24.32
-23.20
-19.68
-14.15
-7.24
0.22
7.42
13.67
18.52
21.86
23.77
24.56
24.56
24.00
23.00
21.60
19.85
17.90
16.03
14.48
13.36
12.55
11.74
10.60
8.89
6.65
4.13
1.66
-0.54
-2.45
-4.26
-6.18
-8.29
-10.59
-13.03
-15.67
-18.63
-21.96
-25.43
-28.49
-30.30
-30.12
-27.59
-22.91
-16.72
-9.93
-3.32
2.61
7.70
11.99
15.64
18.69
21.12
22.81
23.67
23.69
23.03
21.96
20.77
19.70
18.84
18.16
17.60
17.02
16.36
15.57
14.68
13.70
12.64
11.47
10.10
8.41
6.31
3.77
0.86
-2.36
-5.80
-9.41
-13.07
-16.53
-19.37
-21.11
-21.26
-19.64
-16.37
-11.85
-6.62
-1.21
3.99
8.73
12.82
16.13
18.55
20.03
20.63
20.50
19.88
19.04
18.20
17.54
17.12
16.90
16.74
16.48
16.03
15.33
14.41
13.31
11.98
10.35
8.31
5.87
3.18
0.48
-1.98
-4.09
-5.93
-7.76
-9.87
-12.49
-15.64
-19.11
-22.53
-25.34
-26.96
-26.93
-25.08
-21.57
-16.89
-11.70
-6.60
-1.98
2.03
5.46
8.34
10.65
12.29
13.14
13.22
12.69
11.80
10.87
10.13
9.66
9.43
9.32
9.15
8.80
8.20
7.30
6.14
4.74
3.14
1.38
-0.45
-2.30
-4.07
-5.68
-7.11
-8.32
-9.36
-10.32
-11.35
-12.63
-14.33
-16.47
-18.93
-21.41
-23.46
-24.64
-24.63
-23.31
-20.76
-17.22
-13.05
-8.59
-4.13
0.11
3.98
7.36
10.10
12.07
13.19
13.51
13.23
12.64
12.06
11.66
11.43
11.25
10.95
10.47
9.84
9.17
8.57
8.07
7.56
6.91
5.99
4.73
3.16
1.36
-0.55
-2.46
-4.33
-6.15
-7.96
-9.79
-11.72
-13.73
-15.79
-17.77
-19.57
-21.07
-22.13
-22.61
-22.34
-21.18
-19.04
-16.00
-12.28
-8.26
-4.34
-0.82
2.14
4.53
6.47
8.05
9.30
10.20
10.70
10.83
10.67
10.34
9.95
9.54
9.07
8.44
7.56
6.48
5.34
4.41
3.86
3.72
3.78
3.62
2.89
1.39
-0.75
-3.18
-5.47
-7.39
-8.91
-10.21
-11.51
-12.93
-14.48
-16.13
-17.81
-19.47
-21.00
-22.14
-22.57
-21.98
-20.22
-17.40
-13.85
-10.01
-6.27
-2.90
0.01
2.43
4.43
5.97
7.01
7.49
7.41
6.91
6.22
5.57
5.14
4.98
5.05
5.27
5.61
6.08
6.67
7.32
7.81
7.94
7.56
6.71
5.50
4.13
2.72
1.31
-0.13
-1.65
-3.27
-4.99
-6.81
-8.74
-10.78
-12.88
-14.83
-16.35
-17.09
-16.86
-15.61
-13.49
-10.74
-7.64
-4.40
-1.19
1.88
4.71
7.16
9.10
10.38
10.95
10.88
10.33
9.51
8.63
7.84
7.22
6.80
6.54
6.39
6.23
6.01
5.71
5.33
4.95
4.59
4.19
3.64
2.78
1.59
0.15
-1.34
-2.64
-3.64
-4.40
-5.14
-6.09
-7.38
-9.03
-10.87
-12.62
-13.98
-14.62
-14.29
-12.93
-10.67
-7.83
-4.82
-2.06
0.18
1.78
2.81
3.39
3.65
3.67
3.49
3.22
3.03
3.11
3.64
4.64
5.95
7.24
8.18
8.54
8.35
7.78
7.13
6.60
6.27
6.01
5.61
4.92
3.89
2.62
1.25
-0.12
-1.52
-3.09
-5.03
-7.48
-10.34
-13.25
-15.68
-17.04
-16.93
-15.25
-12.20
-8.26
-3.97
0.10
3.56
6.13
7.76
8.51
8.56
8.16
7.51
6.73
5.93
5.13
4.37
3.70
3.10
2.51
1.85
1.03
0.06
-0.98
-2.00
-2.95
-3.87
-4.90
-6.14
-7.60
-9.15
-10.67
-12.08
-13.48
-15.00
-16.81
-18.92
-21.21
-23.43
-25.31
-26.55
-26.93
-26.27
-24.54
-21.83
-18.38
-14.51
-10.50
-6.62
-3.07
-0.01
2.41
4.14
5.20
5.73
5.95
6.01
5.94
5.71
5.27
4.70
4.18
3.92
4.01
4.36
4.76
4.96
4.83
4.36
3.62
2.63
1.36
-0.21
-2.07
-4.09
-6.04
-7.71
-9.05
-10.18
-11.34
-12.78
-14.54
-16.42
-17.98
-18.69
-18.13
-16.16
-12.93
-8.88
-4.57
-0.50
2.97
5.71
7.80
9.37
10.52
11.30
11.75
11.89
11.83
11.72
11.69
11.80
12.02
12.22
12.26
12.06
11.61
10.98
10.26
9.46
8.53
7.36
5.89
4.13
2.23
0.38
-1.28
-2.72
-4.08
-5.59
-7.46
-9.75
-12.38
-15.08
-17.49
-19.17
-19.74
-18.99
-16.85
-13.52
-9.40
-5.01
-0.84
2.71
5.45
7.40
8.71
9.59
10.24
10.79
11.28
11.71
12.00
12.15
12.12
11.93
11.58
11.07
10.43
9.73
9.05
8.47
7.98
7.48
6.76
5.65
4.10
2.24
0.33
-1.35
-2.65
-3.59
-4.36
-5.19
-6.30
-7.80
-9.70
-11.92
-14.28
-16.47
-18.10
-18.75
-18.11
-16.07
-12.79
-8.71
-4.39
-0.35
3.08
5.79
7.82
9.32
10.38
11.06
11.37
11.33
11.06
10.71
10.44
10.35
10.40
10.42
10.28
9.93
9.47
9.05
8.78
8.58
8.28
7.67
6.67
5.38
3.98
2.63
1.35
-0.00
-1.55
-3.37
-5.38
-7.49
-9.61
-11.71
-13.77
-15.66
-17.12
-17.87
-17.69
-16.55
-14.58
-12.01
-9.08
-5.90
-2.53
0.96
4.41
7.56
10.12
11.88
12.77
12.94
12.63
12.15
11.77
11.62
11.72
11.98
12.27
12.50
12.60
12.54
12.23
11.59
10.55
9.11
7.33
5.37
3.38
1.47
-0.31
-2.02
-3.71
-5.45
-7.29
-9.27
-11.41
-13.73
-16.15
-18.54
-20.65
-22.18
-22.84
-22.40
-20.78
-18.04
-14.41
-10.18
-5.69
-1.28
2.78
6.30
9.13
11.22
12.54
13.12
13.05
12.47
11.63
10.77
10.10
9.70
9.52
9.40
9.21
8.89
8.49
8.08
7.68
7.17
6.36
5.12
3.44
1.51
-0.41
-2.09
-3.49
-4.75
-6.16
-7.98
-10.32
-13.12
-16.12
-18.98
-21.32
-22.78
-23.09
-22.08
-19.70
-16.07
-11.49
-6.38
-1.25
3.45
7.38
10.38
12.50
13.88
14.68
15.04
15.06
14.79
14.35
13.91
13.64
13.65
13.90
14.20
14.23
13.74
12.66
11.10
9.30
7.51
5.89
4.46
3.12
1.74
0.29
-1.22
-2.71
-4.13
-5.46
-6.75
-8.15
-9.79
-11.71
-13.78
-15.73
-17.08
-17.38
-16.33
-13.85
-10.20
-5.78
-1.05
3.54
7.67
11.11
13.66
15.19
15.58
14.85
13.21
11.04
8.80
6.84
5.41
4.45
3.78
3.19
2.55
1.88
1.22
0.60
-0.06
-0.87
-1.96
-3.35
-4.98
-6.70
-8.45
-10.28
-12.28
-14.54
-17.05
-19.75
-22.52
-25.25
-27.86
-30.24
-32.13
-33.14
-32.88
-31.03
-27.53
-22.68
-17.02
-11.21
-5.84
-1.28
2.35
5.12
7.22
8.85
10.10
11.02
11.58
11.78
11.73
11.60
11.57
11.75
12.08
12.37
12.40
12.05
11.30
10.25
9.00
7.67
6.33
5.01
3.71
2.45
1.12
-0.40
-2.32
-4.80
-7.91
-11.57
-15.56
-19.50
-22.90
-25.24
-26.03
-24.95
-21.95
-17.32
-11.67
-5.73
-0.15
4.58
8.31
11.10
13.14
14.62
15.63
16.14
16.13
15.65
14.86
14.03
13.40
13.09
13.04
13.02
12.77
12.17
11.20
10.01
8.75
7.47
6.07
4.43
2.44
0.16
-2.23
-4.50
-6.56
-8.47
-10.43
-12.67
-15.31
-18.25
-21.13
-23.41
-24.58
-24.31
-22.51
-19.34
-15.12
-10.22
-5.04
0.15
5.10
9.57
13.39
16.40
18.51
19.74
20.23
20.18
19.83
19.34
18.80
18.21
17.57
16.90
16.24
15.63
15.05
14.39
13.52
12.30
10.70
8.74
6.49
4.05
1.50
-1.07
-3.58
-5.98
-8.28
-10.59
-13.14
-16.10
-19.51
-23.14
-26.46
-28.77
-29.44
-28.11
-24.82
-20.03
-14.35
-8.42
-2.65
2.70
7.54
11.79
15.33
17.99
19.68
20.41
20.38
19.84
19.06
18.19
17.31
16.44
15.55
14.66
13.80
13.05
12.42
11.90
11.35
10.56
9.34
7.57
5.29
2.74
0.20
-2.10
-4.04
-5.70
-7.28
-9.00
-11.06
-13.54
-16.46
-19.74
-23.08
-26.06
-28.07
-28.52
-26.99
-23.45
-18.24
-12.01
-5.45
0.89
6.64
11.67
15.90
19.25
21.64
23.01
23.39
22.99
22.14
21.19
20.41
19.91
19.61
19.35
18.96
18.38
17.66
16.94
16.33
15.84
15.28
14.39
12.92
10.74
7.98
4.93
2.01
-0.47
-2.40
-3.95
-5.49
-7.43
-10.05
-13.35
-16.98
-20.34
-22.78
-23.76
-23.01
-20.58
-16.77
-12.05
-6.94
-1.94
2.58
6.36
9.22
11.10
11.99
11.98
11.24
10.02
8.59
7.22
6.14
5.43
5.07
4.92
4.87
4.81
4.66
4.37
3.83
2.89
1.36
-0.83
-3.59
-6.67
-9.72
-12.45
-14.76
-16.80
-18.80
-20.98
-23.44
-26.14
-29.00
-31.88
-34.59
-36.81
-38.08
-37.85
-35.65
-31.35
-25.26
-18.14
-10.89
-4.30
1.18
5.48
8.83
11.46
13.55
15.09
16.00
16.21
15.83
15.13
14.40
13.80
13.30
12.67
11.65
10.07
8.01
5.68
3.36
1.19
-0.80
-2.72
-4.70
-6.73
-8.73
-10.57
-12.18
-13.62
-15.11
-16.92
-19.24
-22.00
-24.85
-27.23
-28.49
-28.13
-25.89
-21.85
-16.40
-10.06
-3.41
3.00
8.71
13.39
16.88
19.22
20.66
21.54
22.19
22.83
23.46
23.93
24.07
23.76
23.06
22.16
21.25
20.50
19.92
19.43
18.87
18.08
16.93
15.33
13.25
10.65
7.66
4.44
1.26
-1.65
-4.19
-6.44
-8.59
-10.90
-13.45
-16.04
-18.18
-19.23
-18.56
-15.87
-11.24
-5.15
1.67
8.48
14.70
20.02
24.35
27.77
30.36
32.27
33.60
34.47
34.94
35.07
34.87
34.29
33.25
31.56
29.04
25.52
21.03
15.82
10.37
5.21
0.74
-2.94
-6.02
-8.79
-11.50
-14.12
-16.47
-18.33
-19.59
-20.40
-21.08
-22.03
-23.56
-25.75
-28.43
-31.24
-33.68
-35.27
-35.61
-34.47
-31.85
-27.93
-23.06
-17.71
-12.35
-7.40
-3.15
0.28
2.89
4.81
6.22
7.34
8.32
9.32
10.41
11.55
12.64
13.54
14.11
14.28
14.11
13.68
13.12
12.48
11.70
10.70
9.37
7.70
5.73
3.64
1.59
-0.30
-2.06
-3.82
-5.77
-8.05
-10.69
-13.55
-16.31
-18.59
-19.98
-20.13
-18.91
-16.39
-12.93
-9.05
-5.29
-2.08
0.45
2.38
3.91
5.16
6.11
6.63
6.68
6.37
6.05
6.08
6.62
7.52
8.36
8.68
8.28
7.32
6.22
5.47
5.29
5.51
5.68
5.34
4.24
2.53
0.56
-1.28
-2.75
-3.90
-5.02
-6.41
-8.27
-10.65
-13.41
-16.36
-19.22
-21.69
-23.42
-24.03
-23.22
-20.91
-17.26
-12.65
-7.61
-2.63
1.90
5.77
8.91
11.31
12.97
13.92
14.20
13.94
13.37
12.84
12.64
12.95
13.69
14.55
15.10
15.00
14.12
12.62
10.80
8.96
7.24
5.69
4.25
2.86
1.55
0.33
-0.79
-1.94
-3.29
-5.05
-7.35
-10.24
-13.59
-17.12
-20.46
-23.13
-24.72
-24.87
-23.47
-20.63
-16.67
-12.02
-7.13
-2.37
1.98
5.72
8.73
10.97
12.40
13.05
13.02
12.50
11.71
10.89
10.21
9.76
9.53
9.42
9.36
9.29
9.22
9.13
9.00
8.75
8.27
7.48
6.33
4.88
3.22
1.43
-0.41
-2.26
-4.13
-6.05
-8.10
-10.35
-12.85
-15.47
-17.90
-19.60
-20.00
-18.66
-15.46
-10.71
-5.01
0.86
6.24
10.72
14.17
16.67
18.35
19.27
19.45
18.94
17.89
16.62
15.47
14.71
14.41
14.42
14.44
14.25
13.73
12.84
11.66
10.17
8.36
6.18
3.63
0.79
-2.19
-5.15
-7.99
-10.66
-13.20
-15.76
-18.50
-21.58
-24.98
-28.50
-31.75
-34.25
-35.54
-35.35
-33.68
-30.73
-26.90
-22.60
-18.24
-14.14
-10.53
-7.49
-5.00
-2.93
-1.12
0.48
1.84
2.86
3.42
3.51
3.25
2.76
2.15
1.44
0.55
-0.53
-1.70
-2.74
-3.40
-3.51
-3.13
-2.54
-2.16
-2.38
-3.43
-5.27
-7.74
-10.55
-13.51
-16.51
-19.50
-22.37
-24.81
-26.36
-26.58
-25.17
-22.19
-18.01
-13.18
-8.23
-3.53
0.70
4.39
7.50
10.03
12.00
13.49
14.69
15.76
16.89
18.08
19.24
20.18
20.74
20.85
20.60
20.14
19.58
18.97
18.20
17.09
15.52
13.49
11.13
8.64
6.18
3.80
1.41
-1.18
-4.07
-7.30
-10.71
-13.95
-16.59
-18.19
-18.43
-17.23
-14.71
-11.21
-7.13
-2.88
1.25
5.02
8.26
10.84
12.68
13.81
14.36
14.54
14.57
14.59
14.65
14.70
14.67
14.50
14.21
13.88
13.59
13.37
13.18
12.88
12.34
11.39
10.00
8.20
6.08
3.69
1.12
-1.52
-4.12
-6.52
-8.69
-10.76
-12.99
-15.67
-18.88
-22.31
-25.32
-27.13
-27.12
-25.13
-21.46
-16.76
-11.73
-6.94
-2.68
0.95
3.92
6.21
7.82
8.77
9.18
9.28
9.32
9.49
9.85
10.32
10.77
11.05
11.13
11.06
10.93
10.73
10.35
9.64
8.51
6.97
5.21
3.42
1.76
0.25
-1.23
-2.75
-4.37
-6.10
-7.94
-9.95
-12.23
-14.80
-17.52
-20.02
-21.77
-22.30
-21.33
-18.90
-15.37
-11.24
-7.00
-3.02
0.52
3.56
6.13
8.22
9.77
10.72
11.13
11.23
11.34
11.80
12.77
14.15
15.64
16.87
17.62
17.79
17.47
16.76
15.76
14.46
12.90
11.15
9.37
7.70
6.22
4.88
3.48
1.82
-0.23
-2.69
-5.49
-8.47
-11.50
-14.44
-17.12
-19.29
-20.63
-20.78
-19.55
-16.97
-13.39
-9.32
-5.27
-1.63
1.46
4.10
6.38
8.36
9.99
11.10
11.56
11.41
10.82
10.04
9.35
8.89
8.66
8.54
8.39
8.08
7.58
6.90
6.08
5.13
4.04
2.76
1.30
-0.30
-1.93
-3.50
-4.94
-6.25
-7.54
-8.97
-10.71
-12.86
-15.36
-18.00
-20.41
-22.13
-22.74
-21.96
-19.76
-16.34
-12.04
-7.33
-2.64
1.71
5.53
8.74
11.30
13.21
14.43
14.97
14.89
14.37
13.75
13.35
13.43
14.06
14.98
15.84
16.27
16.07
15.30
14.19
13.07
12.16
11.58
11.25
11.05
10.76
10.20
9.23
7.84
6.16
4.39
2.81
1.67
1.12
1.09
1.25
1.07
-0.11
-2.75
-6.90
-12.11
-17.50
-22.05
-24.95
-25.89
-25.08
-23.09
-20.61
-18.17
-16.10
-14.51
-13.40
-12.68
-12.21
-11.77
-11.14
-10.15
-8.71
-6.91
-4.92
-2.99
-1.38
-0.26
0.27
0.26
-0.18
-0.83
-1.47
-1.97
-2.28
-2.48
-2.70
-3.09
-3.76
-4.77
-6.16
-7.89
-9.84
-11.79
-13.42
-14.32
-14.19
-12.88
-10.51
-7.39
-3.92
-0.50
2.60
5.31
7.62
9.55
11.08
12.19
12.87
13.20
13.31
13.34
13.35
13.31
13.14
12.79
12.31
11.81
11.44
11.29
11.34
11.46
11.50
11.35
10.98
10.44
9.72
8.83
7.71
6.33
4.76
3.04
1.23
-0.73
-2.99
-5.74
-8.93
-12.26
-15.12
-16.89
-17.09
-15.57
-12.57
-8.51
-3.89
0.83
5.32
9.26
12.41
14.60
15.77
16.07
15.78
15.25
14.76
14.46
14.31
14.16
13.80
13.07
11.88
10.26
8.27
6.05
3.72
1.45
-0.66
-2.55
-4.21
-5.72
-7.10
-8.41
-9.63
-10.78
-11.95
-13.27
-14.94
-17.03
-19.41
-21.70
-23.42
-24.02
-23.24
-21.07
-17.85
-14.04
-10.15
-6.59
-3.60
-1.25
0.41
1.40
1.75
1.55
0.97
0.23
-0.43
-0.84
-0.97
-0.91
-0.79
-0.77
-0.88
-1.14
-1.51
-2.02
-2.68
-3.50
-4.45
-5.42
-6.28
-6.92
-7.35
-7.69
-8.13
-8.92
-10.28
-12.36
-15.10
-18.21
-21.23
-23.57
-24.71
-24.30
-22.33
-19.05
-14.89
-10.30
-5.62
-1.06
3.28
7.33
10.98
14.11
16.59
18.34
19.35
19.66
19.38
18.60
17.49
16.30
15.29
14.67
14.52
14.74
15.06
15.18
14.91
14.21
13.15
11.85
10.41
8.80
6.97
4.83
2.35
-0.50
-3.72
-7.34
-11.30
-15.37
-19.10
-21.86
-23.05
-22.27
-19.62
-15.60
-10.99
-6.59
-2.98
-0.40
1.27
2.30
3.03
3.67
4.30
4.86
5.27
5.46
5.45
5.31
5.12
4.93
4.75
4.51
4.18
3.79
3.42
3.11
2.82
2.37
1.57
0.29
-1.41
-3.33
-5.27
-7.11
-8.88
-10.79
-13.02
-15.62
-18.47
-21.26
-23.58
-25.04
-25.34
-24.31
-21.94
-18.42
-14.02
-9.18
-4.37
-0.05
3.43
5.85
7.22
7.74
7.70
7.49
7.40
7.64
8.26
9.19
10.28
11.33
12.16
12.66
12.88
12.87
12.75
12.56
12.19
11.53
10.46
9.04
7.43
5.88
4.54
3.42
2.42
1.29
-0.16
-2.08
-4.54
-7.47
-10.66
-13.74
-16.20
-17.55
-17.50
-16.03
-13.41
-10.11
-6.50
-2.86
0.75
4.32
7.77
10.91
13.50
15.31
16.29
16.57
16.38
16.03
15.76
15.68
15.78
15.95
16.00
15.78
15.22
14.34
13.20
11.91
10.51
8.98
7.32
5.55
3.76
2.05
0.55
-0.68
-1.69
-2.58
-3.57
-4.85
-6.67
-9.11
-12.08
-15.25
-18.08
-19.97
-20.44
-19.33
-16.76
-13.13
-8.95
-4.63
-0.47
3.37
6.77
9.64
11.86
13.34
14.04
14.10
13.75
13.33
13.10
13.21
13.59
14.00
14.19
13.93
13.23
12.28
11.35
10.62
10.10
9.56
8.70
7.31
5.39
3.17
0.97
-0.97
-2.61
-4.12
-5.72
-7.58
-9.73
-12.03
-14.31
-16.33
-17.86
-18.62
-18.39
-16.98
-14.38
-10.73
-6.34
-1.64
2.98
7.14
10.56
13.04
14.53
15.12
15.04
14.55
13.90
13.23
12.59
12.03
11.59
11.36
11.39
11.58
11.75
11.65
11.09
10.01
8.51
6.78
5.00
3.27
1.65
0.11
-1.41
-2.95
-4.53
-6.11
-7.69
-9.30
-11.09
-13.20
-15.62
-18.16
-20.34
-21.52
-21.18
-19.12
-15.56
-11.00
-6.08
-1.33
2.91
6.46
9.16
10.94
11.76
11.78
11.24
10.45
9.69
9.08
8.65
8.37
8.23
8.19
8.17
8.01
7.54
6.62
5.22
3.46
1.52
-0.45
-2.41
-4.39
-6.44
-8.54
-10.64
-12.63
-14.57
-16.59
-18.88
-21.58
-24.66
-27.87
-30.76
-32.82
-33.63
-32.95
-30.74
-27.19
-22.66
-17.65
-12.74
-8.40
-4.97
-2.53
-0.94
0.06
0.79
1.53
2.43
3.55
4.85
6.19
7.39
8.24
8.66
8.67
8.43
8.14
7.91
7.69
7.33
6.67
5.67
4.41
3.09
1.90
0.95
0.18
-0.52
-1.34
-2.37
-3.72
-5.43
-7.49
-9.74
-11.81
-13.22
-13.49
-12.35
-9.86
-6.36
-2.39
1.52
4.99
7.84
9.99
11.48
12.39
12.83
12.97
12.93
12.83
12.71
12.56
12.38
12.19
12.02
11.84
11.60
11.18
10.51
9.58
8.43
7.12
5.70
4.13
2.33
0.24
-2.08
-4.44
-6.62
-8.45
-9.94
-11.32
-12.89
-14.90
-17.36
-20.03
-22.39
-23.84
-23.89
-22.32
-19.28
-15.19
-10.62
-6.09
-1.95
1.60
4.55
6.93
8.79
10.14
10.96
11.35
11.47
11.53
11.74
12.17
12.71
13.17
13.34
13.19
12.84
12.50
12.35
12.40
12.44
12.20
11.45
10.11
8.24
6.03
3.63
1.21
-1.15
-3.35
-5.37
-7.24
-9.05
-10.95
-13.09
-15.43
-17.80
-19.78
-20.91
-20.85
-19.43
-16.72
-13.01
-8.68
-4.11
0.40
4.60
8.28
11.30
13.53
14.94
15.58
15.60
15.23
14.67
14.16
13.80
13.57
13.34
12.91
12.13
11.03
9.81
8.68
7.85
7.31
6.85
6.23
5.24
3.81
2.02
0.03
-2.03
-4.09
-6.11
-8.09
-10.05
-12.09
-14.36
-16.96
-19.82
-22.65
-24.85
-25.81
-25.02
-22.38
-18.23
-13.21
-8.04
-3.24
0.92
4.45
7.46
10.02
12.06
13.49
14.23
14.36
14.14
13.87
13.77
13.86
13.96
13.84
13.38
12.61
11.69
10.77
9.94
9.17
8.36
7.44
6.38
5.13
3.66
1.95
0.02
-2.02
-3.99
-5.78
-7.41
-9.03
-10.86
-13.06
-15.49
-17.80
-19.52
-20.18
-19.49
-17.46
-14.29
-10.36
-6.07
-1.74
2.38
6.12
9.36
11.95
13.75
14.69
14.87
14.47
13.80
13.14
12.67
12.45
12.43
12.53
12.66
12.77
12.81
12.72
12.46
11.98
11.24
10.24
8.99
7.50
5.82
4.01
2.11
0.21
-1.66
-3.45
-5.19
-6.92
-8.73
-10.75
-13.09
-15.70
-18.32
-20.53
-21.81
-21.82
-20.41
-17.77
-14.27
-10.36
-6.43
-2.75
0.50
3.24
5.41
7.05
8.23
9.10
9.86
10.65
11.58
12.63
13.70
14.57
14.99
14.73
13.74
12.10
10.09
7.99
6.04
4.35
2.91
1.59
0.27
-1.13
-2.69
-4.46
-6.50
-8.84
-11.43
-14.20
-17.04
-19.87
-22.62
-25.23
-27.56
-29.35
-30.23
-29.82
-27.95
-24.68
-20.39
-15.61
-10.94
-6.75
-3.21
-0.34
1.95
3.69
4.91
5.66
6.08
6.39
6.79
7.36
8.00
8.52
8.72
8.55
8.16
7.80
7.65
7.78
7.98
7.95
7.39
6.14
4.23
1.90
-0.57
-2.87
-4.83
-6.45
-7.91
-9.47
-11.42
-13.91
-16.82
-19.77
-22.19
-23.46
-23.13
-21.04
-17.41
-12.75
-7.62
-2.60
1.95
5.85
9.09
11.71
13.78
15.34
16.45
17.21
17.74
18.17
18.54
18.82
18.85
18.51
17.71
16.50
15.09
13.69
12.49
11.54
10.73
9.84
8.58
6.77
4.37
1.49
-1.58
-4.51
-7.03
-9.02
-10.56
-11.90
-13.39
-15.31
-17.83
-20.85
-23.99
-26.64
-28.14
-27.96
-25.84
-21.95
-16.78
-11.02
-5.37
-0.34
3.74
6.80
9.01
10.65
12.08
13.61
15.33
17.16
18.78
19.87
20.24
19.86
18.92
17.69
16.40
15.22
14.22
13.42
12.79
12.21
11.54
10.57
9.15
7.23
4.88
2.28
-0.34
-2.85
-5.19
-7.43
-9.74
-12.31
-15.24
-18.49
-21.82
-24.78
-26.89
-27.67
-26.83
-24.34
-20.47
-15.64
-10.38
-5.13
-0.20
4.21
8.01
11.12
13.47
15.04
15.90
16.17
16.06
15.78
15.51
15.35
15.30
15.30
15.25
15.04
14.55
13.74
12.68
11.50
10.40
9.45
8.59
7.62
6.26
4.27
1.64
-1.49
-4.80
-7.96
-10.78
-13.29
-15.71
-18.28
-21.12
-24.09
-26.78
-28.66
-29.21
-28.18
-25.56
-21.60
-16.71
-11.31
-5.75
-0.38
4.56
8.84
12.31
14.88
16.52
17.28
17.29
16.79
16.09
15.47
15.14
15.12
15.27
15.36
15.21
14.79
14.21
13.57
12.93
12.22
11.27
9.95
8.23
6.21
4.04
1.85
-0.32
-2.47
-4.61
-6.77
-8.96
-11.23
-13.65
-16.23
-18.88
-21.37
-23.33
-24.36
-24.12
-22.46
-19.42
-15.19
-10.11
-4.61
0.82
5.74
9.79
12.78
14.73
15.84
16.37
16.56
16.61
16.61
16.67
16.79
16.96
17.08
17.00
16.59
15.82
14.81
13.77
12.85
12.11
11.43
10.58
9.32
7.47
5.04
2.14
-0.97
-4.04
-6.81
-9.18
-11.15
-12.89
-14.60
-16.49
-18.61
-20.82
-22.79
-24.07
-24.18
-22.78
-19.74
-15.23
-9.67
-3.65
2.26
7.58
12.01
15.39
17.66
18.86
19.15
18.78
18.08
17.41
16.98
16.85
16.90
16.92
16.72
16.25
15.57
14.85
14.22
13.72
13.26
12.67
11.75
10.30
8.23
5.57
2.50
-0.75
-3.94
-6.92
-9.70
-12.45
-15.42
-18.80
-22.64
-26.74
-30.67
-33.88
-35.87
-36.25
-34.88
-31.82
-27.40
-22.10
-16.51
-11.19
-6.52
-2.69
0.37
2.78
4.72
6.21
7.25
7.80
7.94
7.81
7.64
7.58
7.66
7.86
8.08
8.23
8.25
8.04
7.44
6.35
4.65
2.38
-0.33
-3.20
-5.95
-8.38
-10.40
-12.08
-13.58
-15.12
-16.93
-19.15
-21.75
-24.44
-26.74
-28.04
-27.82
-25.81
-22.10
-17.11
-11.36
-5.43
0.19
5.22
9.46
12.82
15.31
16.97
17.97
18.53
18.84
19.00
19.02
18.76
18.10
17.03
15.64
14.16
12.83
11.85
11.26
10.97
10.79
10.48
9.81
8.58
6.72
4.25
1.34
-1.72
-4.64
-7.23
-9.48
-11.54
-13.69
-16.16
-19.01
-22.10
-25.07
-27.41
-28.55
-28.03
-25.60
-21.39
-15.83
-9.60
-3.41
2.20
6.96
10.88
14.07
16.64
18.56
19.79
20.31
20.25
19.84
19.38
19.04
18.81
18.52
17.96
17.01
15.68
14.19
12.78
11.58
10.59
9.58
8.29
6.50
4.19
1.53
-1.23
-3.86
-6.28
-8.56
-10.88
-13.45
-16.34
-19.50
-22.75
-25.78
-28.24
-29.75
-29.96
-28.64
-25.71
-21.31
-15.77
-9.57
-3.22
2.75
7.93
12.02
14.92
16.72
17.63
17.91
17.85
17.64
17.39
17.14
16.87
16.55
16.11
15.45
14.53
13.32
11.90
10.40
8.97
7.69
6.59
5.53
4.37
2.98
1.30
-0.59
-2.55
-4.41
-6.12
-7.76
-9.54
-11.65
-14.22
-17.18
-20.23
-22.91
-24.70
-25.22
-24.24
-21.78
-17.99
-13.15
-7.55
-1.59
4.30
9.63
14.01
17.21
19.24
20.30
20.69
20.62
20.24
19.56
18.63
17.52
16.43
15.54
14.94
14.58
14.30
13.98
13.50
12.86
12.05
11.05
9.79
8.24
6.39
4.33
2.22
0.17
-1.73
-3.53
-5.38
-7.52
-10.13
-13.29
-16.83
-20.36
-23.30
-25.10
-25.32
-23.84
-20.82
-16.57
-11.49
-5.95
-0.32
5.00
9.61
13.18
15.53
16.77
17.19
17.15
16.98
16.80
16.65
16.52
16.45
16.51
16.74
17.09
17.36
17.37
16.97
16.18
15.12
13.90
12.48
10.73
8.49
5.67
2.39
-1.09
-4.44
-7.51
-10.29
-12.98
-15.81
-18.96
-22.37
-25.77
-28.70
-30.69
-31.37
-30.55
-28.35
-25.01
-20.93
-16.51
-12.12
-8.06
-4.52
-1.59
0.71
2.47
3.76
4.62
5.11
5.26
5.17
4.98
4.81
4.75
4.81
4.93
5.05
5.10
5.03
4.76
4.22
3.29
1.87
-0.06
-2.40
-4.99
-7.57
-9.89
-11.80
-13.27
-14.48
-15.71
-17.24
-19.24
-21.65
-24.18
-26.40
-27.77
-27.88
-26.46
-23.54
-19.37
-14.45
-9.30
-4.35
0.14
4.11
7.58
10.54
12.93
14.69
15.79
16.38
16.73
17.10
17.68
18.46
19.30
20.00
20.40
20.43
20.15
19.64
18.98
18.23
17.39
16.43
15.27
13.81
11.89
9.38
6.21
2.41
-1.79
-6.14
-10.42
-14.52
-18.44
-22.19
-25.66
-28.51
-30.30
-30.53
-28.96
-25.66
-21.01
-15.60
-10.00
-4.68
0.07
4.11
7.40
9.92
11.72
12.85
13.44
13.64
13.66
13.71
13.95
14.46
15.14
15.83
16.27
16.27
15.75
14.76
13.43
11.96
10.47
9.01
7.55
6.03
4.35
2.48
0.37
-1.96
-4.43
-6.94
-9.40
-11.79
-14.16
-16.62
-19.18
-21.72
-23.90
-25.26
-25.39
-24.09
-21.47
-17.86
-13.70
-9.35
-5.05
-0.92
2.90
6.26
8.92
10.72
11.62
11.77
11.47
11.09
10.92
11.12
11.69
12.50
13.39
14.14
14.59
14.59
14.06
13.02
11.58
9.90
8.19
6.53
4.93
3.35
1.69
-0.05
-1.85
-3.68
-5.61
-7.73
-10.17
-12.99
-16.13
-19.43
-22.65
-25.54
-27.85
-29.30
-29.58
-28.37
-25.45
-20.78
-14.62
-7.49
-0.04
7.04
13.19
18.07
21.55
23.68
24.61
24.55
23.80
22.66
21.39
20.19
19.17
18.29
17.42
16.44
15.28
13.94
12.47
10.95
9.42
7.86
6.26
4.53
2.64
0.57
-1.66
-3.98
-6.29
-8.50
-10.60
-12.65
-14.77
-17.07
-19.52
-21.92
-23.87
-24.94
-24.78
-23.30
-20.66
-17.18
-13.15
-8.80
-4.26
0.32
4.64
8.38
11.21
12.98
13.78
13.90
13.70
13.44
13.25
13.11
12.96
12.75
12.47
12.18
11.91
11.70
11.53
11.38
11.16
10.78
10.16
9.25
8.07
6.68
5.20
3.68
2.17
0.63
-1.01
-2.85
-4.96
-7.38
-10.05
-12.86
-15.55
-17.74
-19.04
-19.07
-17.61
-14.68
-10.55
-5.64
-0.49
4.40
8.59
11.83
13.97
15.05
15.25
14.80
14.00
13.12
12.39
11.99
12.00
12.35
12.79
13.02
12.73
11.80
10.36
8.69
7.09
5.67
4.30
2.74
0.83
-1.37
-3.62
-5.64
-7.29
-8.67
-10.09
-11.87
-14.18
-16.99
-20.09
-23.17
-25.88
-27.93
-29.03
-29.00
-27.76
-25.41
-22.20
-18.50
-14.73
-11.22
-8.19
-5.65
-3.50
-1.53
0.43
2.42
4.32
5.89
6.85
7.04
6.46
5.33
3.94
2.61
1.53
0.73
0.15
-0.34
-0.81
-1.34
-1.91
-2.57
-3.37
-4.41
-5.77
-7.48
-9.45
-11.55
-13.68
-15.77
-17.88
-20.10
-22.51
-25.01
-27.30
-28.94
-29.42
-28.38
-25.73
-21.69
-16.76
-11.51
-6.47
-1.94
1.96
5.26
7.99
10.18
11.83
12.91
13.50
13.73
13.78
13.84
14.00
14.29
14.65
15.01
15.36
15.69
15.98
16.09
15.81
14.88
13.15
10.69
7.75
4.71
1.89
-0.56
-2.72
-4.76
-6.95
-9.47
-12.32
-15.35
-18.20
-20.35
-21.30
-20.64
-18.24
-14.36
-9.51
-4.40
0.33
4.23
7.14
9.11
10.33
11.01
11.35
11.50
11.56
11.58
11.56
11.44
11.19
10.80
10.32
9.81
9.30
8.80
8.25
7.58
6.74
5.68
4.42
2.95
1.31
-0.44
-2.21
-3.89
-5.48
-7.07
-8.84
-11.02
-13.72
-16.82
-20.01
-22.81
-24.73
-25.40
-24.63
-22.48
-19.14
-14.92
-10.13
-5.06
-0.03
4.64
8.67
11.87
14.16
15.61
16.39
16.65
16.57
16.24
15.81
15.48
15.40
15.69
16.29
17.01
17.56
17.69
17.25
16.21
14.68
12.82
10.84
8.88
7.03
5.23
3.35
1.27
-1.07
-3.68
-6.61
-9.89
-13.50
-17.24
-20.61
-22.88
-23.33
-21.52
-17.55
-12.01
-5.75
0.51
6.35
11.71
16.69
21.36
25.59
29.10
31.64
33.15
33.79
34.00
34.23
34.86
35.95
37.29
38.42
38.89
38.41
37.02
35.09
33.18
31.90
31.80
33.10
35.58
38.42
40.20
39.18
33.83
23.37
8.22
-10.17
-29.68
-48.28
-64.44
-77.33
-86.56
-91.91
-93.14
-90.12
-83.09
-72.88
-60.82
-48.40
-36.83
-26.73
-18.05
-10.31
-2.96
4.28
11.28
17.67
23.02
27.13
30.15
32.51
34.74
37.42
40.94
45.43
50.50
55.09
57.56
56.04
49.07
36.24
18.54
-1.85
-22.20
-40.05
-53.90
-63.31
-68.71
-70.90
-70.64
-68.51
-64.91
-60.19
-54.72
-48.89
-43.02
-37.28
-31.71
-26.29
-21.06
-16.27
-12.33
-9.65
-8.47
-8.71
-9.89
-11.27
-12.10
-11.78
-10.11
-7.22
-3.49
0.53
4.33
7.52
9.95
11.70
12.99
14.08
15.11
16.06
16.76
16.99
16.64
15.75
14.51
13.16
11.85
10.60
9.26
7.62
5.53
2.95
-0.04
-3.23
-6.27
-8.78
-10.23
-10.16
-8.30
-4.63
0.51
6.46
12.52
18.09
22.88
26.86
30.09
32.59
34.24
34.73
33.78
31.28
27.41
22.63
17.54
12.70
8.48
5.04
2.38
0.44
-0.82
-1.45
-1.58
-1.43
-1.28
-1.39
-1.92
-2.87
-4.17
-5.66
-7.33
-9.20
-11.35
-13.89
-16.86
-20.18
-23.55
-26.44
-28.22
-28.31
-26.38
-22.48
-17.04
-10.72
-4.22
1.86
7.09
11.29
14.41
16.55
17.88
18.60
18.92
18.99
18.93
18.78
18.59
18.36
18.09
17.70
17.12
16.29
15.19
13.87
12.39
10.83
9.22
7.56
5.78
3.82
1.65
-0.75
-3.30
-5.90
-8.44
-10.90
-13.33
-15.88
-18.67
-21.61
-24.38
-26.50
-27.38
-26.62
-24.06
-19.87
-14.49
-8.51
-2.47
3.19
8.15
12.23
15.34
17.43
18.55
18.81
18.42
17.65
16.73
15.89
15.20
14.62
14.04
13.32
12.46
11.48
10.48
9.51
8.53
7.42
6.05
4.31
2.23
-0.09
-2.49
-4.84
-7.09
-9.28
-11.52
-13.97
-16.75
-19.85
-23.10
-26.14
-28.42
-29.43
-28.76
-26.26
-22.07
-16.54
-10.19
-3.57
2.82
8.59
13.39
17.02
19.40
20.56
20.68
20.03
18.89
17.58
16.35
15.32
14.50
13.80
13.08
12.29
11.39
10.39
9.30
8.13
6.79
5.22
3.37
1.27
-1.00
-3.32
-5.60
-7.83
-10.06
-12.44
-15.13
-18.23
-21.66
-25.09
-27.94
-29.49
-29.12
-26.55
-21.97
-15.92
-9.15
-2.38
3.91
9.42
13.98
17.46
19.68
20.57
20.24
19.07
17.55
16.17
15.20
14.58
14.11
13.54
12.73
11.73
10.70
9.78
9.03
8.33
7.53
6.48
5.10
3.38
1.41
-0.69
-2.79
-4.78
-6.67
-8.59
-10.77
-13.40
-16.55
-20.02
-23.36
-25.98
-27.23
-26.63
-23.99
-19.41
-13.31
-6.27
1.01
7.87
13.72
18.17
21.03
22.31
22.30
21.38
20.07
18.77
17.72
16.99
16.49
16.07
15.63
15.17
14.70
14.30
14.00
13.81
13.60
13.23
12.51
11.30
9.52
7.20
4.49
1.58
-1.34
-4.16
-6.84
-9.48
-12.25
-15.24
-18.37
-21.29
-23.45
-24.23
-23.17
-20.17
-15.52
-9.82
-3.77
2.03
7.12
11.18
14.05
15.63
15.97
15.32
14.02
12.43
10.87
9.46
8.29
7.40
6.88
6.77
7.03
7.46
7.75
7.60
6.84
5.48
3.68
1.64
-0.51
-2.74
-5.12
-7.70
-10.46
-13.37
-16.33
-19.35
-22.46
-25.69
-28.96
-31.97
-34.24
-35.16
-34.26
-31.35
-26.61
-20.61
-14.09
-7.81
-2.37
1.91
4.93
6.79
7.72
7.96
7.73
7.22
6.58
5.98
5.48
5.13
4.86
4.59
4.21
3.62
2.85
1.96
1.03
0.10
-0.85
-1.93
-3.23
-4.82
-6.74
-8.94
-11.31
-13.79
-16.32
-18.95
-21.73
-24.59
-27.31
-29.44
-30.36
-29.49
-26.48
-21.40
-14.73
-7.28
0.05
6.53
11.71
15.52
18.12
19.77
20.78
21.33
21.54
21.40
20.92
20.12
19.06
17.84
16.58
15.37
14.26
13.24
12.27
11.33
10.29
9.06
7.46
5.39
2.82
-0.15
-3.31
-6.43
-9.33
-11.98
-14.50
-17.08
-19.92
-22.97
-25.99
-28.45
-29.69
-29.13
-26.49
-21.88
-15.80
-8.98
-2.14
4.16
9.58
13.97
17.29
19.56
20.84
21.26
21.05
20.49
19.83
19.24
18.76
18.30
17.74
17.02
16.13
15.13
14.09
13.01
11.79
10.32
8.49
6.30
3.86
1.28
-1.30
-3.85
-6.41
-9.04
-11.82
-14.83
-18.15
-21.79
-25.60
-29.18
-31.92
-33.09
-32.11
-28.75
-23.31
-16.41
-8.90
-1.53
5.19
10.94
15.61
19.12
21.42
22.50
22.45
21.50
19.96
18.20
16.56
15.19
14.09
13.15
12.21
11.19
10.14
9.11
8.19
7.29
6.27
4.90
3.08
0.86
-1.61
-4.12
-6.59
-9.08
-11.76
-14.78
-18.20
-21.86
-25.37
-28.25
-29.92
-29.91
-27.90
-23.90
-18.18
-11.31
-4.00
3.04
9.26
14.32
18.11
20.66
22.12
22.66
22.46
21.70
20.59
19.33
18.13
17.12
16.35
15.83
15.49
15.25
15.07
14.91
14.71
14.35
13.65
12.44
10.62
8.21
5.35
2.23
-0.98
-4.25
-7.61
-11.14
-14.88
-18.75
-22.48
-25.62
-27.55
-27.70
-25.68
-21.42
-15.27
-7.93
-0.26
6.93
13.06
17.86
21.23
23.25
24.08
23.94
23.06
21.72
20.20
18.78
17.62
16.84
16.47
16.49
16.76
17.09
17.19
16.78
15.62
13.67
11.07
8.08
4.99
2.00
-0.85
-3.62
-6.42
-9.35
-12.50
-15.91
-19.65
-23.63
-27.54
-30.76
-32.48
-31.90
-28.64
-22.91
-15.46
-7.41
0.16
6.45
11.12
14.19
15.88
16.51
16.37
15.72
14.80
13.87
13.12
12.70
12.59
12.64
12.58
12.13
11.10
9.45
7.34
5.01
2.71
0.55
-1.54
-3.71
-6.14
-8.93
-12.08
-15.54
-19.25
-23.22
-27.43
-31.80
-36.02
-39.58
-41.87
-42.31
-40.61
-36.82
-31.34
-24.82
-17.99
-11.49
-5.74
-0.93
2.94
5.97
8.26
9.91
10.99
11.59
11.83
11.79
11.57
11.24
10.83
10.37
9.88
9.41
8.98
8.60
8.20
7.63
6.69
5.26
3.32
0.99
-1.51
-4.02
-6.51
-9.09
-11.98
-15.30
-18.92
-22.46
-25.25
-26.60
-25.95
-23.06
-18.07
-11.48
-4.09
3.30
9.95
15.45
19.62
22.53
24.30
25.09
24.98
24.13
22.77
21.22
19.78
18.66
17.92
17.39
16.85
16.07
14.86
13.18
11.10
8.80
6.50
4.35
2.40
0.53
-1.47
-3.81
-6.62
-9.90
-13.58
-17.53
-21.61
-25.51
-28.78
-30.81
-31.01
-29.01
-24.85
-18.98
-12.17
-5.20
1.32
7.00
11.70
15.33
17.88
19.30
19.64
19.05
17.79
16.15
14.43
12.81
11.43
10.32
9.47
8.84
8.35
7.88
7.29
6.49
5.39
3.93
2.09
-0.14
-2.68
-5.45
-8.34
-11.31
-14.39
-17.66
-21.13
-24.55
-27.46
-29.21
-29.19
-27.06
-22.88
-17.09
-10.42
-3.60
2.73
8.20
12.69
16.19
18.80
20.60
21.57
21.72
21.10
19.84
18.16
16.39
14.79
13.54
12.67
12.06
11.47
10.65
9.40
7.64
5.53
3.35
1.45
0.09
-0.69
-1.10
-1.55
-2.53
-4.40
-7.30
-11.06
-15.23
-19.18
-22.24
-23.79
-23.47
-21.14
-17.00
-11.51
-5.35
0.72
6.03
10.17
13.00
14.71
15.61
16.03
16.18
16.08
15.71
15.05
14.17
13.20
12.29
11.53
10.90
10.34
9.75
9.04
8.18
7.16
5.92
4.44
2.71
0.81
-1.18
-3.17
-5.16
-7.29
-9.84
-12.96
-16.62
-20.43
-23.70
-25.62
-25.53
-23.19
-18.78
-12.93
-6.43
-0.10
5.47
9.91
13.13
15.23
16.37
16.75
16.54
15.91
15.02
14.04
13.09
12.27
11.60
10.99
10.35
9.55
8.53
7.32
6.00
4.69
3.44
2.28
1.15
-0.04
-1.38
-2.91
-4.68
-6.73
-9.16
-12.01
-15.24
-18.54
-21.38
-23.06
-23.01
-21.02
-17.26
-12.31
-6.87
-1.55
3.26
7.41
10.83
13.49
15.28
16.14
16.09
15.33
14.18
12.93
11.81
10.90
10.20
9.62
9.08
8.51
7.89
7.23
6.51
5.77
4.96
3.99
2.68
0.87
-1.53
-4.48
-7.81
-11.32
-14.78
-17.94
-20.49
-22.03
-22.12
-20.50
-17.18
-12.60
-7.47
-2.53
1.64
4.82
7.10
8.71
9.83
10.52
10.78
10.63
10.21
9.70
9.27
8.97
8.73
8.45
8.06
7.59
7.09
6.58
6.03
5.35
4.53
3.61
2.65
1.65
0.49
-1.00
-2.92
-5.16
-7.46
-9.40
-10.65
-11.01
-10.45
-9.07
-7.01
-4.42
-1.40
1.94
5.40
8.73
11.63
13.83
15.16
15.61
15.32
14.48
13.34
12.05
10.74
9.51
8.52
7.85
7.54
7.48
7.46
7.25
6.69
5.76
4.58
3.30
2.05
0.88
-0.22
-1.34
-2.53
-3.88
-5.45
-7.26
-9.28
-11.37
-13.30
-14.76
-15.44
-15.10
-13.68
-11.27
-8.20
-4.90
-1.82
0.67
2.36
3.21
3.33
2.91
2.18
1.33
0.53
-0.16
-0.76
-1.36
-2.07
-2.97
-4.02
-5.09
-6.11
-7.11
-8.29
-9.98
-12.36
-15.43
-18.94
-22.45
-25.60
-28.16
-30.08
-31.46
-32.39
-32.85
-32.71
-31.79
-29.93
-27.17
-23.65
-19.64
-15.38
-11.00
-6.54
-1.94
2.76
7.37
11.43
14.35
15.64
15.08
12.96
9.97
7.03
4.97
4.15
4.44
5.32
6.11
6.32
5.83
4.83
3.67
2.71
2.10
1.78
1.53
1.01
-0.09
-1.94
-4.58
-7.80
-11.27
-14.54
-17.15
-18.67
-18.81
-17.47
-14.82
-11.34
-7.65
-4.37
-1.93
-0.42
0.36
0.74
1.01
1.28
1.49
1.56
1.46
1.25
1.09
1.10
1.30
1.59
1.78
1.69
1.21
0.34
-0.82
-2.10
-3.35
-4.47
-5.47
-6.46
-7.55
-8.82
-10.27
-11.83
-13.39
-14.83
-15.98
-16.65
-16.60
-15.67
-13.75
-10.96
-7.57
-3.98
-0.60
2.28
4.51
6.16
7.37
8.26
8.87
9.16
9.08
8.67
8.06
7.47
7.11
7.02
7.11
7.18
7.03
6.57
5.81
4.86
3.83
2.79
1.78
0.81
-0.16
-1.16
-2.28
-3.63
-5.30
-7.35
-9.68
-12.04
-14.02
-15.17
-15.14
-13.81
-11.31
-7.98
-4.27
-0.59
2.76
5.59
7.85
9.56
10.78
11.59
12.03
12.13
11.90
11.38
10.66
9.92
9.34
9.04
9.01
9.13
9.17
8.95
8.35
7.35
6.08
4.69
3.31
2.05
0.92
-0.15
-1.25
-2.51
-3.99
-5.71
-7.60
-9.52
-11.27
-12.55
-13.10
-12.64
-11.02
-8.28
-4.67
-0.63
3.37
6.89
9.68
11.65
12.88
13.58
13.90
14.03
14.08
14.12
14.19
14.29
14.36
14.27
13.91
13.19
12.07
10.65
9.09
7.59
6.30
5.27
4.42
3.57
2.51
1.12
-0.64
-2.68
-4.89
-7.19
-9.54
-11.89
-14.08
-15.86
-16.86
-16.77
-15.43
-12.91
-9.45
-5.39
-1.11
3.08
6.87
10.00
12.22
13.38
13.46
12.64
11.22
9.56
8.03
6.90
6.32
6.32
6.82
7.58
8.28
8.57
8.14
6.82
4.70
2.04
-0.77
-3.42
-5.70
-7.59
-9.18
-10.62
-12.12
-13.86
-16.03
-18.72
-21.88
-25.22
-28.23
-30.30
-30.93
-29.85
-27.13
-23.13
-18.38
-13.47
-8.91
-5.13
-2.37
-0.68
0.07
0.15
-0.08
-0.33
-0.39
-0.23
0.06
0.32
0.46
0.47
0.42
0.43
0.56
0.82
1.10
1.28
1.24
0.89
0.16
-0.90
-2.22
-3.66
-5.18
-6.79
-8.62
-10.81
-13.42
-16.23
-18.80
-20.48
-20.68
-19.06
-15.65
-10.93
-5.64
-0.53
3.86
7.30
9.84
11.73
13.19
14.35
15.15
15.55
15.46
15.01
14.35
13.68
13.11
12.64
12.20
11.70
11.11
10.42
9.62
8.63
7.38
5.79
3.86
1.70
-0.48
-2.47
-4.14
-5.58
-7.06
-8.92
-11.35
-14.23
-17.13
-19.38
-20.29
-19.44
-16.81
-12.73
-7.75
-2.42
2.77
7.49
11.52
14.72
17.06
18.53
19.21
19.21
18.67
17.78
16.75
15.81
15.15
14.88
14.93
15.15
15.25
15.01
14.27
13.01
11.28
9.20
6.88
4.43
1.94
-0.53
-2.94
-5.32
-7.73
-10.29
-13.07
-16.04
-18.98
-21.49
-23.07
-23.25
-21.72
-18.48
-13.81
-8.24
-2.38
3.23
8.18
12.27
15.43
17.68
19.09
19.74
19.74
19.26
18.47
17.59
16.81
16.22
15.87
15.72
15.65
15.48
15.05
14.25
13.05
11.54
9.78
7.86
5.75
3.38
0.71
-2.19
-5.12
-7.86
-10.32
-12.55
-14.77
-17.17
-19.75
-22.20
-23.99
-24.46
-23.13
-19.85
-14.89
-8.86
-2.56
3.31
8.24
12.03
14.73
16.46
17.36
17.54
17.10
16.21
15.11
14.10
13.40
13.12
13.20
13.47
13.76
13.90
13.83
13.52
12.96
12.09
10.87
9.29
7.40
5.30
3.14
1.04
-0.94
-2.80
-4.61
-6.52
-8.68
-11.23
-14.16
-17.22
-19.88
-21.50
-21.50
-19.55
-15.72
-10.42
-4.32
1.90
7.63
12.45
16.12
18.56
19.86
20.22
19.93
19.25
18.41
17.55
16.76
16.05
15.39
14.72
13.99
13.19
12.34
11.49
10.65
9.76
8.71
7.40
5.80
3.92
1.81
-0.42
-2.72
-5.07
-7.44
-9.82
-12.26
-14.83
-17.56
-20.37
-22.93
-24.76
-25.34
-24.32
-21.65
-17.62
-12.74
-7.57
-2.62
1.73
5.24
7.83
9.58
10.68
11.37
11.83
12.15
12.29
12.14
11.59
10.67
9.50
8.26
7.11
6.07
5.04
3.83
2.29
0.33
-1.94
-4.33
-6.59
-8.59
-10.31
-11.87
-13.45
-15.22
-17.32
-19.83
-22.81
-26.23
-29.84
-33.23
-35.81
-36.99
-36.32
-33.74
-29.53
-24.26
-18.63
-13.21
-8.42
-4.39
-1.03
1.82
4.31
6.52
8.45
10.04
11.23
11.99
12.37
12.42
12.23
11.84
11.35
10.85
10.41
10.09
9.84
9.56
9.12
8.41
7.36
5.99
4.29
2.35
0.25
-1.94
-4.18
-6.54
-9.07
-11.80
-14.54
-16.89
-18.26
-18.18
-16.43
-13.16
-8.84
-4.01
0.84
5.38
9.45
12.96
15.85
18.04
19.49
20.21
20.24
19.72
18.77
17.63
16.57
15.81
15.50
15.66
16.08
16.48
16.56
16.10
15.02
13.42
11.49
9.49
7.64
6.04
4.72
3.59
2.49
1.22
-0.42
-2.63
-5.47
-8.82
-12.36
-15.57
-17.88
-18.84
-18.18
-15.94
-12.33
-7.69
-2.34
3.39
9.12
14.41
18.82
22.03
23.95
24.78
24.98
25.08
25.47
26.29
27.35
28.32
28.83
28.68
28.01
27.29
27.10
27.92
29.91
32.70
35.55
37.52
37.91
36.59
33.99
31.03
28.87
28.49
30.35
34.11
38.43
41.11
39.58
31.82
17.18
-3.11
-26.06
-47.92
-65.40
-76.70
-81.90
-82.49
-80.48
-77.54
-74.54
-71.69
-68.92
-66.17
-63.52
-61.02
-58.51
-55.59
-51.77
-46.73
-40.58
-33.88
-27.44
-21.98
-17.88
-15.07
-13.14
-11.57
-9.98
-8.26
-6.53
-5.02
-3.92
-3.27
-2.93
-2.73
-2.51
-2.25
-1.98
-1.84
-1.96
-2.45
-3.34
-4.53
-5.79
-6.73
-6.91
-5.99
-3.78
-0.38
3.94
8.74
13.61
18.23
22.36
25.87
28.56
30.19
30.54
29.49
27.13
23.83
20.17
16.70
13.79
11.51
9.66
7.98
6.30
4.73
3.62
3.35
4.06
5.60
7.47
9.08
9.99
10.00
9.24
7.96
6.40
4.70
2.89
0.93
-1.11
-3.15
-5.12
-6.99
-8.82
-10.64
-12.31
-13.51
-13.82
-12.84
-10.43
-6.82
-2.46
2.01
6.09
9.47
12.07
13.95
15.23
15.95
16.10
15.70
14.86
13.86
13.04
12.64
12.62
12.65
12.27
11.04
8.88
6.00
2.85
-0.17
-2.86
-5.24
-7.47
-9.64
-11.73
-13.58
-15.07
-16.14
-16.86
-17.35
-17.76
-18.18
-18.70
-19.38
-20.28
-21.33
-22.35
-22.99
-22.77
-21.33
-18.50
-14.42
-9.59
-4.62
-0.09
3.62
6.38
8.29
9.53
10.23
10.48
10.30
9.76
9.04
8.37
7.97
7.94
8.20
8.57
8.80
8.75
8.39
7.79
7.12
6.44
5.73
4.87
3.72
2.24
0.50
-1.28
-2.88
-4.17
-5.17
-6.05
-7.06
-8.41
-10.13
-12.04
-13.81
-15.07
-15.54
-15.01
-13.54
-11.25
-8.36
-5.14
-1.87
1.15
3.69
5.62
6.93
7.71
8.12
8.25
8.20
7.97
7.60
7.10
6.55
6.01
5.55
5.23
5.08
5.09
5.21
5.29
5.18
4.73
3.90
2.71
1.29
-0.21
-1.63
-2.87
-3.88
-4.71
-5.54
-6.58
-8.01
-9.92
-12.18
-14.51
-16.52
-17.85
-18.21
-17.44
-15.54
-12.63
-8.98
-4.97
-1.02
2.46
5.17
7.01
8.04
8.46
8.56
8.62
8.80
9.14
9.56
9.91
10.06
9.93
9.58
9.05
8.43
7.76
7.06
6.32
5.55
4.77
4.02
3.30
2.53
1.66
0.62
-0.61
-2.01
-3.53
-5.15
-6.89
-8.80
-10.89
-13.09
-15.23
-16.99
-18.04
-18.11
-17.12
-15.13
-12.36
-9.06
-5.48
-1.86
1.59
4.65
7.08
8.74
9.61
9.87
9.78
9.66
9.67
9.85
10.12
10.36
10.47
10.45
10.34
10.20
10.06
9.90
9.69
9.35
8.83
8.06
6.99
5.60
3.98
2.22
0.50
-1.05
-2.42
-3.75
-5.24
-7.14
-9.53
-12.31
-15.16
-17.64
-19.29
-19.75
-18.86
-16.65
-13.31
-9.10
-4.39
0.44
5.00
8.95
11.99
13.99
14.93
14.93
14.19
13.02
11.73
10.60
9.86
9.58
9.67
9.92
10.06
9.84
9.18
8.11
6.84
5.55
4.37
3.33
2.37
1.44
0.50
-0.43
-1.36
-2.33
-3.44
-4.83
-6.58
-8.73
-11.24
-13.97
-16.74
-19.23
-21.07
-21.84
-21.26
-19.28
-16.12
-12.27
-8.30
-4.67
-1.66
0.78
2.87
4.87
6.89
8.88
10.57
11.74
12.26
12.21
11.88
11.56
11.39
11.36
11.24
10.85
10.10
9.11
8.01
6.88
5.66
4.14
2.16
-0.30
-3.08
-5.88
-8.45
-10.76
-12.89
-15.09
-17.57
-20.42
-23.63
-27.02
-30.34
-33.21
-35.18
-35.79
-34.76
-32.05
-27.99
-23.11
-18.09
-13.51
-9.73
-6.83
-4.65
-2.91
-1.34
0.28
2.00
3.74
5.30
6.48
7.14
7.27
7.01
6.53
6.03
5.69
5.56
5.67
5.99
6.41
6.80
7.03
6.97
6.54
5.76
4.70
3.46
2.15
0.78
-0.72
-2.46
-4.62
-7.30
-10.42
-13.69
-16.56
-18.33
-18.40
-16.48
-12.71
-7.66
-2.16
3.03
7.37
10.76
13.37
15.51
17.39
19.09
20.50
21.50
22.08
22.34
22.49
22.70
23.08
23.55
23.95
24.06
23.76
23.06
22.07
20.93
19.82
18.89
18.22
17.80
17.35
16.40
14.34
10.57
4.87
-2.55
-10.97
-19.48
-27.24
-33.78
-39.04
-43.11
-46.05
-47.64
-47.51
-45.33
-41.09
-35.15
-28.19
-20.98
-14.10
-7.88
-2.40
2.39
6.53
9.99
12.66
14.47
15.41
15.63
15.43
15.16
15.11
15.35
15.80
16.26
16.56
16.66
16.67
16.73
16.85
16.89
16.56
15.66
14.11
12.07
9.78
7.46
5.25
3.13
1.03
-1.15
-3.47
-6.00
-8.77
-11.79
-14.98
-18.10
-20.77
-22.53
-22.92
-21.63
-18.57
-14.00
-8.41
-2.49
3.09
7.82
11.47
14.02
15.65
16.61
17.01
17.01
16.66
16.10
15.46
14.89
14.46
14.16
13.90
13.58
13.17
12.68
12.13
11.54
10.85
9.93
8.63
6.87
4.71
2.29
-0.13
-2.38
-4.37
-6.16
-7.93
-9.89
-12.23
-15.06
-18.36
-22.00
-25.70
-28.96
-31.21
-31.87
-30.57
-27.31
-22.48
-16.75
-10.84
-5.30
-0.48
3.49
6.58
8.84
10.41
11.50
12.45
13.60
15.21
17.37
19.92
22.53
24.77
26.28
26.82
26.37
25.06
23.15
20.88
18.41
15.80
13.07
10.29
7.56
5.01
2.70
0.52
-1.66
-4.01
-6.60
-9.40
-12.34
-15.42
-18.69
-22.16
-25.74
-29.07
-31.60
-32.73
-32.02
-29.38
-25.06
-19.61
-13.63
-7.69
-2.15
2.81
7.10
10.63
13.33
15.11
16.00
16.13
15.74
15.12
14.50
14.02
13.74
13.68
13.87
14.33
15.04
15.88
16.66
17.17
17.19
16.54
15.11
12.91
10.07
6.81
3.46
0.30
-2.50
-4.99
-7.34
-9.87
-12.84
-16.39
-20.46
-24.68
-28.49
-31.13
-31.94
-30.49
-26.83
-21.46
-15.16
-8.78
-2.90
2.16
6.38
9.77
12.36
14.11
14.99
15.08
14.57
13.80
13.08
12.66
12.61
12.82
13.06
13.12
12.90
12.42
11.83
11.27
10.75
10.21
9.51
8.55
7.25
5.65
3.76
1.66
-0.51
-2.57
-4.27
-5.48
-6.30
-7.09
-8.36
-10.42
-13.13
-15.79
-17.32
-16.66
-13.24
-7.19
0.66
9.16
17.30
24.51
30.79
36.47
41.93
47.29
52.35
56.64
59.73
61.39
61.77
61.36
60.84
60.92
62.22
65.19
69.90
75.77
81.37
84.52
82.76
74.18
58.21
36.03
10.27
-15.83
-39.48
-59.02
-74.03
-84.94
-92.38
-96.77
-98.26
-96.99
-93.33
-88.03
-82.03
-76.13
-70.77
-65.96
-61.45
-56.99
-52.60
-48.58
-45.40
-43.32
-42.33
-42.00
-41.69
-40.76
-38.74
-35.45
-31.06
-25.95
-20.65
-15.71
-11.53
-8.28
-5.91
-4.21
-2.90
-1.76
-0.69
0.30
1.17
1.87
2.45
2.98
3.52
4.08
4.56
4.79
4.63
3.99
2.93
1.59
0.13
-1.42
-3.18
-5.37
-8.11
-11.29
-14.47
-16.97
-18.06
-17.20
-14.22
-9.40
-3.36
3.13
9.38
14.90
19.44
22.94
25.46
26.99
27.61
27.40
26.52
25.26
23.91
22.63
21.47
20.34
19.07
17.61
16.04
14.52
13.20
12.12
11.14
10.00
8.47
6.46
4.04
1.38
-1.36
-4.05
-6.68
-9.26
-11.82
-14.43
-17.23
-20.34
-23.80
-27.50
-30.97
-33.54
-34.42
-33.03
-29.21
-23.36
-16.17
-8.51
-1.13
5.50
11.10
15.59
18.92
21.14
22.34
22.77
22.74
22.58
22.50
22.59
22.78
22.95
23.00
22.87
22.57
22.13
21.57
20.92
20.12
19.06
17.61
15.60
12.90
9.53
5.66
1.59
-2.37
-5.98
-9.14
-12.02
-14.89
-18.08
-21.76
-25.84
-29.84
-33.04
-34.62
-33.98
-30.92
-25.73
-19.06
-11.67
-4.25
2.73
8.93
14.12
18.13
20.81
22.18
22.47
22.05
21.37
20.78
20.45
20.31
20.20
19.92
19.36
18.51
17.47
16.36
15.26
14.11
12.82
11.28
9.43
7.27
4.84
2.20
-0.59
-3.43
-6.21
-8.81
-11.19
-13.54
-16.14
-19.28
-23.00
-26.98
-30.52
-32.79
-33.09
-31.08
-26.88
-20.98
-14.04
-6.81
0.08
6.19
11.22
15.13
17.99
19.96
21.25
21.99
22.28
22.18
21.70
20.87
19.71
18.31
16.80
15.37
14.22
13.48
13.17
13.11
12.97
12.38
11.09
9.04
6.40
3.50
0.63
-1.99
-4.32
-6.47
-8.60
-10.94
-13.69
-16.92
-20.63
-24.56
-28.23
-31.01
-32.21
-31.34
-28.21
-23.06
-16.43
-9.09
-1.77
4.89
10.47
14.81
17.95
20.07
21.38
22.04
22.14
21.76
21.05
20.20
19.44
18.92
18.61
18.36
18.01
17.46
16.82
16.23
15.76
15.31
14.62
13.39
11.45
8.81
5.68
2.35
-0.93
-3.99
-6.81
-9.48
-12.13
-14.88
-17.81
-20.88
-23.90
-26.52
-28.30
-28.77
-27.56
-24.49
-19.63
-13.33
-6.21
0.98
7.53
12.87
16.69
18.97
19.89
19.73
18.82
17.49
16.00
14.59
13.45
12.69
12.29
12.15
12.07
11.84
11.33
10.54
9.52
8.35
7.06
5.55
3.66
1.26
-1.63
-4.85
-8.15
-11.25
-14.05
-16.57
-18.95
-21.34
-23.81
-26.32
-28.75
-30.92
-32.55
-33.34
-32.89
-30.92
-27.31
-22.22
-16.13
-9.66
-3.50
1.88
6.24
9.53
11.83
13.30
14.07
14.31
14.26
14.11
14.03
14.07
14.17
14.22
14.12
13.87
13.53
13.19
12.89
12.55
11.97
10.91
9.17
6.74
3.82
0.70
-2.29
-4.98
-7.37
-9.61
-11.92
-14.49
-17.40
-20.58
-23.74
-26.40
-27.95
-27.86
-25.77
-21.71
-16.10
-9.59
-2.84
3.58
9.33
14.20
18.01
20.65
22.08
22.44
22.03
21.25
20.42
19.70
19.07
18.34
17.40
16.22
14.94
13.74
12.78
12.06
11.45
10.69
9.63
8.19
6.42
4.44
2.35
0.20
-2.05
-4.45
-7.03
-9.79
-12.73
-15.81
-18.89
-21.73
-23.97
-25.18
-25.00
-23.23
-19.92
-15.35
-9.95
-4.17
1.51
6.71
11.08
14.36
16.45
17.40
17.43
16.87
16.07
15.29
14.67
14.25
13.95
13.65
13.23
12.56
11.57
10.27
8.69
6.99
5.32
3.80
2.49
1.34
0.19
-1.04
-2.44
-3.99
-5.59
-7.18
-8.77
-10.49
-12.52
-14.98
-17.78
-20.54
-22.66
-23.54
-22.77
-20.28
-16.31
-11.32
-5.80
-0.20
5.11
9.80
13.60
16.29
17.79
18.22
17.82
16.94
15.90
14.96
14.25
13.84
13.63
13.48
13.25
12.81
12.16
11.36
10.49
9.60
8.67
7.61
6.29
4.59
2.36
-0.50
-4.00
-8.01
-12.18
-16.13
-19.48
-22.03
-23.75
-24.69
-24.84
-24.10
-22.29
-19.27
-15.13
-10.19
-4.97
-0.05
4.11
7.24
9.30
10.41
10.79
10.65
10.17
9.51
8.78
8.11
7.66
7.58
7.90
8.53
9.21
9.65
9.61
9.03
8.08
6.99
5.98
5.13
4.32
3.27
1.75
-0.40
-3.16
-6.38
-9.86
-13.46
-17.09
-20.70
-24.08
-26.93
-28.78
-29.20
-27.99
-25.25
-21.40
-17.03
-12.70
-8.76
-5.38
-2.58
-0.35
1.33
2.47
3.16
3.52
3.68
3.75
3.76
3.74
3.71
3.76
3.91
4.11
4.19
3.93
3.20
2.04
0.65
-0.68
-1.82
-2.80
-3.76
-4.83
-6.04
-7.29
-8.51
-9.77
-11.28
-13.28
-15.82
-18.64
-21.14
-22.69
-22.79
-21.31
-18.48
-14.75
-10.59
-6.35
-2.24
1.65
5.17
8.14
10.31
11.56
11.92
11.64
11.08
10.62
10.43
10.45
10.47
10.25
9.72
9.01
8.36
7.95
7.81
7.78
7.61
7.13
6.30
5.20
3.92
2.49
0.87
-0.95
-2.95
-5.02
-7.06
-9.07
-11.21
-13.65
-16.39
-19.20
-21.60
-23.00
-22.95
-21.26
-18.05
-13.71
-8.77
-3.75
0.90
4.93
8.17
10.67
12.51
13.79
14.58
14.90
14.75
14.21
13.46
12.66
12.00
11.49
11.02
10.48
9.82
9.10
8.45
7.99
7.64
7.26
6.61
5.54
4.06
2.31
0.52
-1.19
-2.78
-4.36
-6.07
-8.02
-10.24
-12.64
-15.10
-17.41
-19.31
-20.54
-20.81
-19.89
-17.73
-14.48
-10.46
-6.13
-1.98
1.66
4.57
6.72
8.18
9.10
9.65
9.99
10.24
10.44
10.58
10.58
10.39
10.01
9.45
8.80
8.17
7.64
7.31
7.17
7.08
6.82
6.13
4.81
2.82
0.32
-2.35
-4.82
-6.83
-8.32
-9.49
-10.59
-11.90
-13.55
-15.45
-17.34
-18.83
-19.52
-19.12
-17.55
-14.86
-11.26
-7.10
-2.73
1.47
5.20
8.25
10.45
11.80
12.38
12.40
12.19
12.07
12.27
12.78
13.40
13.75
13.49
12.48
10.88
9.09
7.56
6.61
6.28
6.34
6.43
6.22
5.54
4.42
2.98
1.39
-0.28
-2.01
-3.80
-5.66
-7.54
-9.38
-11.16
-12.87
-14.46
-15.76
-16.49
-16.32
-15.03
-12.64
-9.40
-5.70
-1.92
1.70
4.99
7.83
10.02
11.37
11.73
11.21
10.14
8.99
8.18
7.90
8.10
8.51
8.85
8.92
8.65
8.13
7.50
6.89
6.43
6.15
6.03
5.95
5.79
5.41
4.76
3.81
2.59
1.17
-0.46
-2.32
-4.46
-6.93
-9.71
-12.69
-15.62
-18.14
-19.80
-20.16
-18.91
-16.10
-12.02
-7.22
-2.34
2.09
5.69
8.32
9.99
10.85
11.08
10.94
10.62
10.31
10.07
9.89
9.70
9.36
8.79
7.96
6.90
5.77
4.70
3.80
3.00
2.09
0.83
-0.98
-3.36
-6.12
-8.98
-11.70
-14.13
-16.28
-18.23
-20.10
-21.98
-23.91
-25.90
-27.80
-29.38
-30.27
-30.10
-28.62
-25.83
-22.00
-17.59
-13.08
-8.90
-5.32
-2.45
-0.29
1.25
2.37
3.25
4.06
4.86
5.66
6.37
6.89
7.17
7.26
7.25
7.23
7.23
7.25
7.24
7.13
6.87
6.44
5.83
5.03
4.07
2.94
1.68
0.28
-1.29
-3.14
-5.37
-8.07
-11.14
-14.29
-17.08
-18.99
-19.65
-18.90
-16.83
-13.76
-10.09
-6.22
-2.50
0.84
3.66
5.91
7.61
8.88
9.82
10.55
11.12
11.57
11.88
12.01
11.87
11.42
10.67
9.71
8.68
7.78
7.10
6.64
6.25
5.75
4.97
3.85
2.40
0.68
-1.20
-3.14
-5.07
-6.99
-9.00
-11.26
-13.92
-16.97
-20.14
-22.90
-24.65
-24.89
-23.43
-20.43
-16.34
-11.74
-7.17
-2.98
0.63
3.58
5.90
7.65
8.92
9.87
10.66
11.43
12.22
12.99
13.66
14.09
14.24
14.09
13.72
13.21
12.65
12.06
11.43
10.67
9.71
8.51
7.05
5.33
3.37
1.20
-1.11
-3.49
-5.87
-8.22
-10.52
-12.77
-14.90
-16.72
-17.93
-18.20
-17.27
-15.10
-11.88
-7.96
-3.75
0.37
4.16
7.46
10.18
12.25
13.65
14.39
14.56
14.26
13.67
12.90
12.07
11.26
10.52
9.92
9.50
9.25
9.11
8.97
8.72
8.26
7.56
6.59
5.35
3.83
2.02
-0.00
-2.18
-4.48
-6.93
-9.62
-12.63
-15.89
-19.11
-21.80
-23.41
-23.49
-21.85
-18.55
-13.92
-8.41
-2.57
3.00
7.81
11.45
13.78
14.89
15.09
14.81
14.42
14.17
14.10
14.15
14.19
14.08
13.77
13.24
12.56
11.75
10.86
9.86
8.75
7.53
6.28
5.06
3.91
2.82
1.71
0.42
-1.16
-3.07
-5.29
-7.71
-10.25
-12.81
-15.25
-17.28
-18.55
-18.67
-17.36
-14.58
-10.58
-5.86
-1.00
3.52
7.37
10.39
12.59
14.00
14.72
14.84
14.50
13.89
13.22
12.64
12.25
12.02
11.81
11.45
10.80
9.83
8.63
7.37
6.22
5.27
4.48
3.75
2.94
1.95
0.79
-0.52
-1.91
-3.41
-5.12
-7.15
-9.61
-12.41
-15.30
-17.78
-19.30
-19.35
-17.71
-14.45
-9.95
-4.78
0.54
5.57
10.05
13.77
16.56
18.31
19.01
18.85
18.25
17.65
17.40
17.55
17.93
18.20
18.11
17.56
16.70
15.71
14.73
13.72
12.54
11.06
9.26
7.21
5.07
2.95
0.90
-1.09
-3.08
-5.16
-7.41
-9.95
-12.87
-16.08
-19.33
-22.10
-23.77
-23.84
-22.07
-18.64
-14.00
-8.78
-3.57
1.14
4.98
7.74
9.32
9.83
9.53
8.83
8.15
7.79
7.83
8.16
8.54
8.71
8.51
7.87
6.85
5.59
4.20
2.77
1.30
-0.30
-2.07
-4.04
-6.13
-8.17
-10.08
-11.89
-13.74
-15.88
-18.54
-21.82
-25.60
-29.56
-33.20
-35.95
-37.30
-36.93
-34.80
-31.19
-26.58
-21.54
-16.59
-12.11
-8.33
-5.35
-3.17
-1.62
-0.47
0.64
1.95
3.55
5.27
6.78
7.75
8.02
7.64
6.86
5.97
5.17
4.52
4.00
3.56
3.14
2.73
2.26
1.62
0.70
-0.58
-2.19
-4.03
-6.01
-8.07
-10.21
-12.46
-14.72
-16.74
-18.11
-18.37
-17.21
-14.53
-10.56
-5.74
-0.62
4.22
8.39
11.62
13.88
15.30
16.10
16.55
16.84
17.04
17.18
17.20
17.10
16.92
16.64
16.23
15.56
14.47
12.89
10.88
8.64
6.45
4.51
2.89
1.52
0.24
-1.07
-2.45
-3.85
-5.21
-6.54
-7.97
-9.73
-11.90
-14.34
-16.60
-18.04
-18.08
-16.44
-13.32
-9.18
-4.64
-0.18
3.94
7.54
10.48
12.60
13.78
14.07
13.76
13.24
12.91
12.93
13.18
13.41
13.42
13.13
12.70
12.29
12.00
11.76
11.40
10.77
9.82
8.65
7.37
6.03
4.65
3.12
1.43
-0.39
-2.30
-4.24
-6.26
-8.50
-11.07
-13.93
-16.85
-19.33
-20.84
-20.96
-19.50
-16.60
-12.69
-8.31
-3.92
0.17
3.87
7.10
9.81
11.87
13.13
13.52
13.22
12.49
11.71
11.12
10.78
10.63
10.51
10.30
9.95
9.48
8.93
8.28
7.53
6.63
5.58
4.39
3.07
1.67
0.19
-1.31
-2.82
-4.31
-5.78
-7.26
-8.83
-10.55
-12.43
-14.34
-16.03
-17.17
-17.45
-16.62
-14.60
-11.49
-7.51
-3.02
1.55
5.73
9.08
11.29
12.27
12.13
11.24
10.03
8.95
8.23
7.97
8.05
8.33
8.65
8.92
9.13
9.29
9.34
9.19
8.77
8.03
7.01
5.83
4.59
3.37
2.13
0.81
-0.69
-2.38
-4.22
-6.11
-8.00
-9.90
-11.87
-13.96
-16.06
-17.92
-19.11
-19.26
-18.09
-15.66
-12.24
-8.29
-4.26
-0.48
2.84
5.63
7.86
9.53
10.66
11.32
11.64
11.78
11.90
12.08
12.27
12.32
12.10
11.51
10.57
9.43
8.27
7.25
6.45
5.82
5.28
4.76
4.18
3.46
2.53
1.28
-0.36
-2.36
-4.56
-6.84
-9.06
-11.24
-13.47
-15.77
-18.05
-20.01
-21.25
-21.35
-20.14
-17.66
-14.18
-10.08
-5.79
-1.68
1.90
4.73
6.64
7.59
7.70
7.22
6.46
5.71
5.15
4.90
4.89
4.99
5.02
4.85
4.46
3.91
3.33
2.85
2.54
2.29
1.98
1.41
0.47
-0.87
-2.59
-4.65
-7.01
-9.63
-12.44
-15.30
-18.09
-20.67
-22.93
-24.76
-25.97
-26.35
-25.65
-23.73
-20.66
-16.66
-12.17
-7.58
-3.30
0.44
3.51
5.92
7.74
9.13
10.21
11.13
12.01
12.85
13.62
14.20
14.49
14.41
14.02
13.50
13.13
13.18
13.82
14.95
16.22
17.17
17.41
16.86
15.79
14.66
13.90
13.71
13.97
14.31
14.29
13.59
12.14
10.17
8.21
7.06
7.59
10.48
15.86
22.94
30.06
35.15
36.42
33.11
25.82
16.24
6.50
-1.64
-7.33
-10.69
-12.38
-13.17
-13.47
-13.28
-12.33
-10.39
-7.41
-3.54
0.95
5.76
10.65
15.50
20.18
24.67
28.99
33.34
37.97
43.10
48.51
53.36
56.11
54.96
48.31
35.53
17.31
-4.47
-27.22
-48.35
-65.94
-79.00
-87.44
-91.79
-92.88
-91.55
-88.61
-84.67
-80.16
-75.31
-70.20
-64.83
-59.21
-53.42
-47.63
-42.08
-37.00
-32.53
-28.73
-25.55
-22.87
-20.51
-18.32
-16.10
-13.78
-11.37
-9.00
-6.90
-5.30
-4.37
-4.10
-4.33
-4.79
-5.25
-5.53
-5.63
-5.66
-5.84
-6.36
-7.36
-8.84
-10.59
-12.26
-13.39
-13.59
-12.57
-10.29
-6.92
-2.80
1.61
5.91
9.75
12.93
15.39
17.12
18.23
18.84
19.09
19.16
19.26
19.55
20.14
21.07
22.24
23.47
24.53
25.24
25.49
25.31
24.81
24.14
23.38
22.53
21.46
20.08
18.33
16.28
14.10
12.06
10.32
8.89
7.60
6.09
4.04
1.22
-2.32
-6.17
-9.74
-12.34
-13.42
-12.78
-10.54
-7.11
-3.02
1.22
5.24
8.81
11.77
14.08
15.67
16.56
16.81
16.55
15.94
15.23
14.61
14.20
14.06
14.09
14.12
14.00
13.61
