1635930317.00
64.000000
-0.00
-0.00
-0.00
-0.00
-0.00
-0.00
-0.00
-0.00
-0.00
-0.00
0.00
0.01
0.01
-0.00
-0.03
-0.05
-0.05
0.00
0.13
0.36
0.66
1.01
1.37
1.72
2.06
2.40
2.79
3.24
3.80
4.42
5.06
5.66
6.20
6.68
7.15
7.68
8.31
9.14
10.09
11.04
11.88
12.56
13.14
13.76
14.65
15.96
17.91
20.32
22.90
25.38
27.58
29.57
31.68
34.32
37.81
42.54
48.15
54.10
59.83
64.97
69.58
74.14
79.34
85.71
93.76
103.00
112.62
121.73
129.77
136.75
143.30
150.75
157.77
166.64
177.95
191.79
206.97
220.57
228.25
225.36
208.53
176.87
132.76
80.05
23.07
-34.94
-92.44
-149.16
-205.23
-260.37
-313.74
-363.87
-409.83
-450.91
-486.50
-515.74
-537.23
-549.22
-549.96
-538.37
-514.21
-478.67
-433.88
-382.45
-327.02
-269.84
-212.63
-156.66
-102.95
-52.37
-5.90
35.58
71.43
101.35
125.50
144.38
158.69
169.15
176.37
180.75
182.57
182.07
179.51
175.23
169.65
163.18
156.15
148.81
141.30
133.69
126.02
118.33
110.69
103.16
95.80
88.68
81.83
75.25
68.95
62.95
57.25
51.86
46.78
42.03
37.59
33.45
29.61
26.07
22.81
19.83
17.11
14.67
12.48
10.54
8.83
7.35
6.07
4.97
4.05
3.27
2.62
2.09
1.65
1.30
1.01
0.79
0.61
0.47
0.37
0.28
0.23
0.18
0.15
0.13
0.13
0.13
0.14
0.16
0.18
0.21
0.25
0.29
0.33
0.37
0.42
0.46
0.51
0.56
0.61
0.66
0.72
0.78
0.85
0.92
1.00
1.09
1.18
1.29
1.42
1.55
1.71
1.88
2.07
2.29
2.52
2.78
3.07
3.39
3.74
4.12
4.53
4.98
5.47
5.99
6.56
7.17
7.81
8.50
9.24
10.02
10.85
11.72
12.64
13.60
14.63
15.71
16.87
18.07
19.34
20.62
21.87
23.04
24.02
24.70
24.94
24.66
23.72
22.07
19.69
16.61
12.90
8.71
4.23
-0.34
-4.77
-8.85
-12.40
-15.29
-17.42
-18.79
-19.40
-19.33
-18.70
-17.62
-16.22
-14.59
-12.84
-11.06
-9.28
-7.50
-5.77
-4.11
-2.50
-0.95
0.56
2.08
3.65
5.31
7.18
9.18
11.28
13.48
15.73
18.03
20.38
22.79
25.35
28.22
31.21
34.28
37.39
40.51
43.60
46.65
49.69
52.83
56.32
59.90
63.46
66.95
70.25
73.23
75.82
78.01
79.93
81.86
83.39
84.23
84.01
82.21
78.18
71.16
60.24
43.98
25.50
5.73
-14.93
-36.47
-59.09
-82.98
-108.05
-133.84
-159.75
-185.31
-211.22
-238.29
-266.95
-296.77
-326.17
-352.66
-373.38
-385.57
-386.67
-374.98
-349.01
-308.20
-253.81
-189.60
-121.62
-56.92
-1.69
40.44
68.67
84.90
92.39
94.41
93.50
91.38
89.23
87.94
88.29
90.63
95.01
101.07
108.25
115.91
123.61
131.18
138.66
146.17
153.61
160.65
166.69
171.11
173.50
173.79
172.31
169.65
166.42
163.08
159.88
156.89
154.11
151.64
149.79
149.06
150.01
153.04
158.18
164.82
171.70
177.05
178.98
175.86
166.74
151.43
130.37
104.37
74.15
40.21
2.83
-37.62
-80.29
-123.74
-165.96
-204.77
-238.27
-265.21
-285.13
-298.33
-305.63
-308.20
-307.29
-304.05
-299.35
-293.72
-287.35
-280.29
-272.75
-265.34
-259.22
-255.82
-256.34
-260.98
-268.27
-274.93
-276.42
-268.14
-246.86
-212.01
-166.06
-114.09
-62.28
-16.30
20.20
46.22
63.23
74.23
82.53
90.68
99.98
110.50
121.61
132.45
142.43
151.21
158.68
164.72
169.28
172.47
174.70
176.64
178.93
181.87
185.09
187.53
187.79
184.62
177.49
166.78
153.82
140.43
128.40
118.99
112.67
109.04
107.20
106.04
104.68
102.75
100.34
97.93
96.00
94.71
93.83
92.69
90.50
86.62
80.82
73.33
64.82
56.06
47.65
39.83
32.34
24.67
16.23
6.78
-3.47
-13.87
-23.62
-32.10
-39.22
-45.43
-51.60
-58.64
-67.21
-77.41
-88.80
-100.54
-111.72
-121.73
-130.43
-138.32
-146.35
-155.70
-167.40
-181.70
-197.56
-212.23
-221.55
-220.97
-207.13
-179.38
-140.41
-95.73
-51.82
-14.09
14.59
34.28
46.99
55.36
61.33
65.84
68.99
70.72
71.25
71.22
71.39
72.29
74.01
76.19
78.38
80.31
82.11
84.17
86.86
90.14
93.42
95.71
95.99
93.71
88.95
82.47
75.37
68.66
63.01
58.53
54.83
51.26
47.18
42.24
36.50
30.44
24.72
19.92
16.30
13.73
11.65
9.29
5.95
1.23
-4.75
-11.44
-17.96
-23.55
-27.89
-31.30
-34.64
-38.96
-44.98
-52.75
-61.54
-70.18
-77.52
-82.96
-86.66
-89.55
-93.02
-98.60
-107.48
-120.04
-135.37
-150.86
-162.41
-165.27
-155.62
-132.16
-97.00
-55.24
-13.48
22.38
48.84
65.35
73.71
76.71
76.87
75.77
74.15
72.33
70.65
69.59
69.57
70.71
72.73
75.02
76.91
78.00
78.39
78.56
79.13
80.44
82.27
83.79
83.84
81.48
76.40
69.14
60.90
53.09
46.69
41.91
38.02
33.74
27.79
19.48
9.04
-2.43
-13.43
-22.64
-29.48
-34.30
-38.19
-42.52
-48.30
-55.83
-64.60
-73.52
-81.48
-87.83
-92.63
-96.72
-101.42
-108.24
-118.35
-132.12
-148.48
-164.65
-176.33
-178.64
-167.79
-142.64
-105.52
-61.78
-18.10
19.66
48.09
66.76
77.50
83.09
86.07
88.11
90.02
92.04
94.17
96.24
97.90
98.74
98.34
96.53
93.45
89.61
85.77
82.73
81.13
81.15
82.45
84.20
85.28
84.67
81.80
76.73
70.08
62.78
55.66
49.17
43.35
37.94
32.61
27.18
21.69
16.40
11.65
7.75
4.80
2.74
1.22
-0.28
-2.28
-5.12
-8.84
-13.07
-17.30
-21.04
-24.12
-26.82
-29.70
-33.40
-38.23
-44.06
-50.29
-56.09
-60.78
-64.15
-66.62
-69.08
-72.59
-77.92
-85.14
-93.55
-101.86
-108.75
-113.37
-115.73
-116.82
-118.29
-122.03
-129.60
-141.55
-156.82
-172.44
-183.77
-185.62
-173.98
-147.67
-109.17
-64.19
-19.83
17.66
44.68
60.76
67.91
69.30
67.99
66.33
65.94
67.90
72.82
80.74
90.91
101.91
111.95
119.52
123.87
125.18
124.44
122.96
121.78
121.28
121.10
120.26
117.68
112.56
104.83
95.11
84.53
74.29
65.25
57.70
51.36
45.64
39.97
34.10
28.14
22.41
17.19
12.52
8.17
3.77
-0.99
-6.18
-11.60
-16.83
-21.45
-25.25
-28.33
-31.20
-34.54
-39.03
-44.95
-52.11
-59.83
-67.27
-73.75
-79.05
-83.51
-87.93
-93.37
-100.81
-110.80
-122.96
-135.54
-145.35
-148.32
-140.80
-121.04
-90.17
-52.26
-13.04
21.92
48.93
66.90
77.00
81.47
82.53
81.63
79.48
76.39
72.71
68.98
65.82
63.61
62.39
61.84
61.46
60.94
60.29
59.84
59.97
60.86
62.26
63.52
63.86
62.67
59.76
55.40
50.16
44.66
39.40
34.66
30.40
26.47
22.60
18.60
14.39
10.03
5.69
1.52
-2.30
-5.72
-8.73
-11.46
-14.16
-17.21
-20.97
-25.66
-31.20
-37.17
-42.87
-47.62
-51.05
-53.30
-55.05
-57.25
-60.74
-65.91
-72.42
-79.40
-85.75
-90.63
-93.87
-96.05
-98.37
-102.21
-108.77
-118.56
-131.05
-144.32
-155.00
-158.85
-151.92
-132.07
-100.13
-60.13
-18.20
19.40
48.21
66.78
76.36
79.78
80.00
79.06
77.96
77.00
76.29
75.98
76.17
76.71
77.16
76.96
75.72
73.40
70.49
67.74
65.89
65.33
65.92
66.97
67.49
66.62
63.94
59.58
54.18
48.54
43.29
38.68
34.61
30.77
26.92
22.97
19.07
15.44
12.28
9.65
7.37
5.16
2.71
-0.16
-3.38
-6.72
-9.83
-12.48
-14.69
-16.78
-19.23
-22.48
-26.69
-31.58
-36.51
-40.78
-43.95
-46.10
-47.88
-50.22
-53.85
-58.93
-64.92
-70.85
-75.79
-79.28
-81.55
-83.39
-85.94
-90.30
-97.28
-107.04
-118.67
-129.85
-137.04
-136.19
-124.14
-100.05
-66.06
-26.91
11.55
44.18
67.99
82.52
89.26
90.52
88.50
84.72
80.10
75.22
70.58
66.72
64.02
62.64
62.39
62.90
63.70
64.53
65.37
66.43
67.84
69.53
71.02
71.60
70.56
67.61
62.91
57.08
50.88
44.90
39.41
34.30
29.34
24.28
19.06
13.88
9.03
4.77
1.14
-2.10
-5.43
-9.30
-13.94
-19.15
-24.45
-29.26
-33.35
-36.95
-40.73
-45.47
-51.58
-58.89
-66.60
-73.69
-79.37
-83.46
-86.48
-89.50
-93.79
-100.51
-110.32
-122.94
-136.72
-148.51
-154.10
-149.41
-131.99
-102.22
-63.69
-22.20
16.11
46.60
67.31
78.94
83.90
84.97
84.35
83.33
82.40
81.67
81.17
80.91
80.86
80.91
80.84
80.52
79.93
79.26
78.92
79.32
80.71
82.95
85.47
87.44
88.05
86.87
84.04
80.22
76.32
73.05
70.74
69.24
68.14
67.07
65.88
64.72
63.84
63.49
63.72
64.47
65.62
67.11
68.98
71.37
74.43
78.30
82.97
88.34
94.01
99.29
103.11
104.14
100.94
92.29
77.40
56.16
29.15
-2.30
-36.34
-70.80
-103.51
-132.78
-157.65
-178.19
-195.49
-211.38
-227.88
-246.55
-267.76
-290.24
-311.01
-325.93
-330.92
-323.43
-303.67
-275.00
-243.12
-214.28
-193.39
-182.64
-181.28
-186.51
-194.91
-203.64
-211.00
-216.42
-220.01
-222.12
-223.05
-222.85
-221.39
-218.37
-213.52
-206.81
-198.56
-189.44
-180.19
-171.34
-162.99
-154.86
-146.57
-137.93
-128.97
-119.83
-110.39
-100.13
-88.17
-73.61
-55.93
-35.15
-11.70
13.91
41.40
70.64
101.22
132.06
161.38
187.24
208.37
224.74
237.58
248.62
259.21
269.64
279.24
286.95
292.12
294.84
295.83
295.86
295.27
293.82
290.98
286.36
279.96
272.21
263.77
255.29
247.27
240.16
234.54
231.21
231.07
234.78
242.34
252.83
264.51
275.27
283.16
286.97
286.34
281.68
273.72
262.99
249.41
232.28
210.73
184.36
153.83
120.84
87.64
56.18
27.52
1.62
-22.18
-44.51
-65.46
-84.49
-100.84
-113.93
-123.71
-130.49
-134.72
-136.59
-136.00
-132.67
-126.48
-117.76
-107.41
-96.64
-86.63
-78.13
-71.18
-65.17
-59.12
-52.08
-43.49
-33.25
-21.61
-9.17
3.25
14.47
23.02
27.38
26.44
19.88
8.31
-7.06
-24.99
-44.95
-67.57
-94.20
-125.80
-161.60
-198.63
-232.41
-258.40
-273.57
-277.00
-269.51
-252.64
-227.93
-197.06
-162.86
-130.09
-105.26
-94.86
-102.94
-129.19
-168.83
-214.55
-259.30
-298.61
-331.17
-357.74
-379.23
-395.25
-403.79
-402.22
-388.98
-364.59
-331.54
-293.22
-252.61
-211.42
-170.02
-128.12
-85.48
-42.27
1.02
44.11
87.45
132.37
180.77
234.16
292.60
353.87
413.71
466.96
509.30
538.71
555.77
562.81
562.40
555.97
543.51
524.24
497.85
465.33
429.00
391.81
356.21
323.50
293.64
265.68
238.40
210.72
182.13
152.65
122.68
92.87
63.89
36.39
10.94
-11.96
-31.81
-48.21
-60.99
-70.38
-77.01
-81.84
-85.96
-90.24
-95.17
-100.68
-106.28
-111.28
-115.07
-117.46
-118.75
-119.72
-121.38
-124.56
-129.63
-136.30
-143.69
-150.63
-156.06
-159.37
-160.49
-159.88
-158.22
-156.18
-154.08
-151.74
-148.30
-142.39
-132.34
-116.79
-95.27
-68.77
-39.63
-11.03
13.98
33.43
46.97
55.73
61.60
66.43
71.29
76.18
80.32
82.50
81.73
77.45
69.71
58.99
46.14
32.19
18.23
5.35
-5.42
-13.29
-17.83
-19.12
-17.80
-14.82
-11.22
-7.79
-4.88
-2.50
-0.46
1.36
2.87
3.72
3.56
2.13
-0.58
-4.26
-8.42
-12.43
-15.70
-17.83
-18.72
-18.56
-17.82
-17.08
-16.84
-17.48
-19.09
-21.51
-24.39
-27.38
-30.15
-32.59
-34.77
-36.91
-39.19
-41.69
-44.28
-46.75
-48.95
-50.93
-52.94
-55.35
-58.52
-62.59
-67.49
-72.84
-78.17
-82.96
-86.93
-90.13
-93.08
-96.66
-101.80
-109.03
-118.00
-127.26
-134.36
-136.41
-130.84
-116.22
-92.86
-62.88
-29.81
2.29
29.89
50.80
64.61
72.38
76.00
77.33
77.67
77.48
76.78
75.46
73.69
71.88
70.54
69.96
70.10
70.67
71.29
71.80
72.22
72.70
73.27
73.74
73.63
72.38
69.65
65.43
60.15
54.52
49.22
44.64
40.77
37.22
33.46
29.07
23.96
18.45
13.06
8.26
4.27
0.87
-2.42
-6.11
-10.44
-15.26
-20.12
-24.58
-28.48
-32.02
-35.73
-40.17
-45.59
-51.81
-58.27
-64.23
-69.13
-72.79
-75.61
-78.47
-82.51
-88.77
-97.65
-108.55
-119.72
-128.40
-131.39
-125.93
-110.55
-85.77
-54.22
-20.05
12.06
38.35
56.91
67.98
73.47
75.93
77.44
79.02
80.60
81.56
81.34
79.85
77.49
74.83
72.31
70.07
68.03
66.09
64.34
63.07
62.55
62.85
63.62
64.17
63.69
61.57
57.71
52.51
46.74
41.22
36.51
32.71
29.52
26.40
22.89
18.84
14.43
10.16
6.50
3.74
1.85
0.51
-0.70
-2.15
-3.96
-6.08
-8.26
-10.30
-12.09
-13.70
-15.41
-17.55
-20.42
-24.11
-28.41
-32.86
-36.95
-40.31
-42.98
-45.36
-48.12
-51.83
-56.69
-62.40
-68.21
-73.33
-77.21
-79.91
-82.10
-84.84
-89.25
-95.95
-104.75
-114.45
-122.91
-127.31
-124.86
-113.46
-92.54
-63.55
-29.84
4.04
33.65
55.91
69.83
76.54
78.50
78.37
78.10
78.54
79.59
80.70
81.33
81.21
80.25
78.48
75.92
72.68
69.06
65.61
63.05
61.99
62.68
64.87
67.78
70.26
71.09
69.26
64.26
56.22
45.95
34.64
23.63
13.96
6.15
0.16
-4.39
-7.98
-10.93
-13.35
-15.29
-16.75
-17.90
-18.92
-19.98
-21.18
-22.53
-24.02
-25.67
-27.51
-29.55
-31.71
-33.78
-35.53
-36.84
-37.79
-38.70
-40.05
-42.27
-45.55
-49.73
-54.28
-58.53
-61.91
-64.18
-65.64
-67.08
-69.55
-74.01
-80.80
-89.39
-98.20
-104.82
-106.42
-100.53
-85.75
-62.33
-32.45
0.22
31.38
57.20
75.37
85.48
88.78
87.44
83.61
78.81
73.80
68.84
64.14
60.07
57.17
55.82
56.07
57.50
59.45
61.27
62.69
63.75
64.75
65.89
67.07
67.87
67.68
65.99
62.56
57.55
51.40
44.62
37.67
30.78
23.95
17.09
10.11
3.14
-3.41
-8.91
-12.76
-14.62
-14.76
-13.98
-13.44
-14.20
-16.87
-21.38
-27.15
-33.38
-39.53
-45.44
-51.32
-57.46
-63.93
-70.41
-76.39
-81.35
-85.12
-87.93
-90.40
-93.32
-97.42
-103.06
-110.02
-117.29
-122.95
-124.46
-119.21
-105.39
-82.90
-53.69
-21.48
9.27
34.67
52.42
62.28
65.70
64.99
62.36
59.36
56.71
54.50
52.62
50.97
49.57
48.43
47.44
46.38
45.02
43.34
41.61
40.27
39.80
40.38
41.76
43.31
44.19
43.71
41.52
37.78
33.08
28.19
23.86
20.53
18.23
16.57
14.99
12.97
10.30
7.17
4.08
1.54
-0.19
-1.23
-2.04
-3.19
-5.05
-7.64
-10.58
-13.34
-15.53
-17.09
-18.32
-19.76
-21.96
-25.26
-29.64
-34.74
-39.93
-44.61
-48.38
-51.26
-53.75
-56.66
-60.80
-66.54
-73.62
-81.21
-88.25
-93.97
-98.27
-101.84
-105.97
-112.11
-121.32
-133.75
-148.31
-162.51
-172.59
-174.37
-164.25
-140.66
-105.01
-61.72
-17.21
22.09
51.61
69.93
78.60
81.08
81.08
81.24
82.66
85.11
87.80
90.03
91.51
92.27
92.39
91.90
90.78
89.09
87.14
85.49
84.71
85.20
86.84
88.93
90.42
90.28
87.86
83.20
76.97
70.17
63.77
58.34
53.95
50.24
46.62
42.63
38.07
33.10
28.06
23.35
19.21
15.59
12.33
9.23
6.20
3.27
0.47
-2.36
-5.52
-9.40
-14.22
-19.77
-25.45
-30.48
-34.28
-36.88
-38.90
-41.38
-45.28
-51.07
-58.45
-66.48
-74.00
-80.10
-84.53
-87.84
-91.24
-96.21
-104.02
-115.13
-128.75
-142.58
-152.95
-155.50
-146.46
-124.01
-89.32
-46.62
-2.18
37.61
68.11
87.58
97.12
99.58
98.05
94.74
90.69
86.11
81.19
76.46
72.76
70.81
70.79
72.25
74.35
76.33
77.81
78.91
79.96
81.20
82.53
83.46
83.29
81.37
77.38
71.46
64.21
56.49
49.16
42.83
37.60
33.14
28.84
24.15
18.80
12.95
7.11
1.90
-2.21
-5.13
-7.25
-9.25
-11.92
-15.81
-21.05
-27.23
-33.58
-39.28
-43.85
-47.38
-50.60
-54.58
-60.35
-68.34
-78.17
-88.71
-98.55
-106.53
-112.31
-116.51
-120.57
-126.28
-135.22
-148.12
-164.32
-181.49
-195.60
-201.76
-195.36
-173.79
-137.70
-91.23
-41.06
5.58
43.10
68.93
83.78
90.61
93.10
94.31
95.93
98.40
101.34
104.19
106.57
108.28
109.29
109.56
109.06
107.84
106.15
104.48
103.41
103.39
104.45
106.14
107.54
107.60
105.55
101.18
94.92
87.64
80.31
73.63
67.86
62.75
57.84
52.63
46.91
40.76
34.58
28.84
23.89
19.82
16.43
13.31
10.05
6.31
2.04
-2.60
-7.20
-11.32
-14.65
-17.24
-19.53
-22.23
-26.07
-31.35
-37.82
-44.70
-51.00
-56.00
-59.65
-62.58
-65.85
-70.47
-76.92
-84.93
-93.62
-101.82
-108.57
-113.59
-117.46
-121.51
-127.52
-137.05
-150.80
-167.92
-185.72
-199.82
-205.07
-196.95
-173.24
-135.17
-87.46
-37.15
8.51
44.17
67.70
80.23
85.06
86.04
86.23
87.29
89.54
92.54
95.63
98.30
100.22
101.21
101.15
100.05
98.11
95.81
93.85
92.92
93.44
95.26
97.60
99.34
99.34
96.93
92.08
85.41
77.90
70.57
64.15
58.90
54.69
51.07
47.52
43.62
39.23
34.49
29.66
25.05
20.88
17.25
14.17
11.55
9.19
6.75
3.80
-0.12
-5.22
-11.38
-18.05
-24.47
-29.96
-34.25
-37.68
-41.08
-45.44
-51.41
-59.03
-67.58
-75.89
-82.88
-88.05
-91.72
-95.05
-99.60
-106.86
-117.69
-131.82
-147.53
-161.59
-169.60
-167.06
-150.73
-120.17
-78.24
-30.76
15.25
53.73
81.21
97.43
104.55
105.74
103.75
100.24
95.87
90.96
86.00
81.83
79.31
78.88
80.41
83.19
86.39
89.38
91.94
94.22
96.42
98.44
99.79
99.61
97.07
91.72
83.73
73.94
63.53
53.65
45.06
37.90
31.81
26.15
20.29
13.84
6.81
-0.43
-7.28
-13.13
-17.55
-20.52
-22.47
-24.26
-26.84
-30.92
-36.69
-43.64
-50.78
-57.08
-61.80
-64.94
-67.11
-69.44
-73.02
-78.47
-85.70
-93.91
-101.96
-108.80
-113.99
-117.84
-121.49
-126.53
-134.49
-146.18
-161.07
-176.83
-189.40
-193.76
-185.31
-161.55
-123.38
-75.25
-24.12
22.66
59.52
84.10
97.34
102.41
103.12
102.48
102.12
102.42
103.08
103.74
104.21
104.40
104.24
103.54
102.16
100.17
97.91
95.93
94.78
94.63
95.19
95.65
95.08
92.64
87.98
81.24
73.03
64.19
55.52
47.58
40.57
34.34
28.48
22.54
16.25
9.67
3.30
-2.15
-6.06
-8.19
-8.82
-8.70
-8.68
-9.40
-11.04
-13.31
-15.67
-17.64
-19.02
-20.05
-21.32
-23.50
-27.03
-31.88
-37.51
-43.15
-48.14
-52.30
-56.11
-60.44
-66.18
-73.74
-82.84
-92.56
-101.73
-109.39
-115.21
-119.67
-123.91
-129.52
-137.95
-149.99
-165.10
-181.08
-194.09
-199.28
-192.15
-170.11
-133.72
-87.00
-36.51
10.56
48.47
74.46
88.94
94.67
95.31
93.99
92.65
91.99
91.95
92.23
92.65
93.16
93.78
94.41
94.94
95.25
95.39
95.57
96.16
97.40
99.26
101.26
102.61
102.36
99.84
94.90
88.03
80.17
72.45
65.80
60.57
56.51
52.89
48.86
43.80
37.61
30.75
24.02
18.25
13.90
10.90
8.61
6.12
2.59
-2.34
-8.47
-15.09
-21.33
-26.58
-30.79
-34.47
-38.53
-43.84
-50.83
-59.32
-68.50
-77.32
-84.88
-90.84
-95.57
-100.11
-105.92
-114.40
-126.42
-141.77
-158.69
-173.73
-182.21
-179.38
-162.06
-130.12
-87.03
-39.11
6.41
43.63
69.56
84.45
90.81
91.87
90.22
87.31
83.65
79.43
75.11
71.41
69.10
68.59
69.70
71.77
74.00
75.83
77.15
78.30
79.70
81.50
83.35
84.45
83.86
80.94
75.60
68.46
60.57
53.08
46.81
42.02
38.34
35.02
31.19
26.30
20.23
13.39
6.47
0.20
-4.94
-8.91
-12.12
-15.20
-18.81
-23.34
-28.78
-34.70
-40.37
-45.04
-48.25
-50.06
-51.16
-52.62
-55.52
-60.47
-67.30
-75.13
-82.74
-89.09
-93.83
-97.46
-101.24
-106.79
-115.49
-127.91
-143.39
-159.67
-172.94
-178.60
-172.44
-152.17
-118.56
-75.68
-29.79
12.51
46.29
69.50
82.99
89.51
92.22
93.60
94.94
96.55
98.28
99.90
101.25
102.19
102.49
101.96
100.45
98.16
95.54
93.29
92.05
92.12
93.30
94.85
95.75
94.95
91.85
86.45
79.39
71.67
64.32
58.03
52.98
48.82
44.89
40.59
35.62
30.09
24.53
19.56
15.67
12.90
10.86
8.84
6.17
2.51
-2.00
-6.81
-11.25
-14.85
-17.58
-19.80
-22.14
-25.19
-29.29
-34.41
-40.17
-45.98
-51.28
-55.80
-59.71
-63.59
-68.24
-74.26
-81.77
-90.28
-98.83
-106.38
-112.31
-116.67
-120.35
-124.76
-131.44
-141.49
-154.93
-170.29
-184.40
-192.85
-191.01
-175.53
-145.80
-104.58
-57.48
-11.34
27.84
56.58
74.54
83.84
87.72
89.12
89.85
90.63
91.48
92.25
92.97
93.71
94.47
94.99
94.96
94.14
92.64
90.97
89.88
90.03
91.65
94.31
97.07
98.76
98.45
95.81
91.16
85.30
79.24
73.80
69.31
65.61
62.12
58.10
52.99
46.67
39.49
32.16
25.39
19.53
14.40
9.32
3.43
-3.93
-12.88
-22.91
-33.03
-42.19
-49.68
-55.45
-60.12
-64.70
-70.15
-76.92
-84.72
-92.71
-99.84
-105.37
-109.20
-111.93
-114.71
-118.93
-125.79
-135.90
-148.68
-162.01
-172.13
-174.35
-164.44
-140.33
-103.26
-57.80
-10.57
31.83
64.83
86.84
98.94
103.68
103.75
101.04
96.62
91.02
84.82
78.76
73.64
70.06
68.17
67.68
68.07
68.83
69.68
70.59
71.68
72.98
74.27
75.08
74.81
72.94
69.28
63.98
57.48
50.39
43.26
36.56
30.50
25.14
20.29
15.59
10.60
4.98
-1.43
-8.48
-15.72
-22.55
-28.45
-33.19
-36.98
-40.50
-44.65
-50.23
-57.60
-66.43
-75.85
-84.79
-92.49
-98.81
-104.37
-110.38
-118.38
-129.72
-145.10
-163.87
-183.56
-199.83
-207.23
-200.83
-178.09
-140.24
-92.30
-41.66
4.29
40.36
64.76
78.77
85.51
88.36
89.88
91.44
93.52
96.05
98.78
101.34
103.33
104.25
103.76
101.78
98.64
95.09
92.08
90.45
90.62
92.35
94.80
96.73
96.89
94.52
89.55
82.67
75.02
67.75
61.57
56.57
52.22
47.71
42.43
36.22
29.55
23.22
17.90
13.80
10.43
6.76
1.66
-5.59
-14.98
-25.69
-36.48
-46.10
-53.89
-59.99
-65.25
-70.85
-77.72
-86.16
-95.67
-105.25
-113.84
-120.86
-126.53
-131.79
-138.08
-146.89
-159.20
-174.95
-192.55
-208.63
-218.47
-217.06
-200.79
-168.96
-124.53
-73.46
-23.02
20.42
53.14
74.56
86.62
92.37
94.72
95.63
96.04
96.28
96.38
96.37
96.28
96.03
95.45
94.26
92.36
89.90
87.37
85.46
84.78
85.55
87.37
89.27
89.99
88.47
84.19
77.40
69.03
60.27
52.19
45.30
39.49
34.11
28.35
21.57
13.60
4.86
-3.76
-11.30
-17.11
-21.15
-24.13
-27.18
-31.49
-37.73
-45.79
-54.82
-63.65
-71.29
-77.38
-82.38
-87.43
-94.01
-103.54
-116.84
-133.60
-151.88
-168.07
-177.49
-175.60
-159.63
-129.81
-89.62
-44.90
-1.97
34.14
61.01
78.73
89.12
94.46
96.55
96.44
94.68
91.77
88.38
85.31
83.18
82.23
82.23
82.70
83.24
83.73
84.40
85.59
87.49
89.84
91.88
92.57
90.93
86.46
79.35
70.48
61.05
52.17
44.45
37.78
31.49
24.67
16.68
7.47
-2.38
-11.90
-20.21
-26.87
-32.24
-37.28
-43.20
-50.93
-60.71
-71.93
-83.43
-94.00
-102.90
-110.20
-116.82
-124.28
-134.30
-148.16
-166.07
-186.53
-206.07
-219.67
-221.99
-209.14
-180.26
-138.23
-89.02
-39.78
3.30
36.69
59.92
74.93
84.63
91.70
97.80
103.54
108.83
113.35
116.77
118.96
119.86
119.50
117.91
115.34
112.23
109.31
107.40
107.10
108.51
111.01
113.42
114.43
113.07
109.09
102.97
95.71
88.36
81.69
75.91
70.77
65.74
60.33
54.39
48.16
42.17
36.96
32.83
29.64
26.92
24.06
20.58
16.31
11.44
6.38
1.51
-2.94
-7.05
-11.15
-15.72
-21.14
-27.57
-34.76
-42.18
-49.20
-55.41
-60.86
-66.11
-72.04
-79.38
-88.37
-98.56
-108.95
-118.42
-126.19
-132.21
-137.29
-142.84
-150.61
-162.03
-177.64
-196.34
-215.05
-228.91
-232.36
-220.85
-192.67
-149.92
-98.30
-45.40
1.60
37.98
62.40
76.57
83.88
87.84
91.04
94.70
99.00
103.54
107.81
111.35
113.80
114.88
114.42
112.54
109.70
106.73
104.58
103.95
105.05
107.38
109.89
111.28
110.48
106.99
101.08
93.59
85.62
78.14
71.65
66.10
60.99
55.76
50.02
43.80
37.52
31.73
26.78
22.67
18.95
14.92
10.01
3.96
-2.88
-9.84
-16.13
-21.34
-25.64
-29.75
-34.64
-41.10
-49.29
-58.72
-68.42
-77.34
-84.86
-91.03
-96.56
-102.64
-110.63
-121.54
-135.53
-151.34
-166.01
-175.21
-174.38
-160.25
-132.36
-93.55
-49.34
-6.21
30.42
57.61
75.15
84.83
89.11
90.01
88.75
85.90
81.90
77.40
73.25
70.18
68.56
68.18
68.48
68.87
69.08
69.27
69.85
71.19
73.21
75.31
76.44
75.55
71.98
65.77
57.65
48.88
40.70
33.98
28.82
24.65
20.39
15.01
7.99
-0.47
-9.49
-17.96
-24.95
-30.28
-34.50
-38.74
-44.20
-51.57
-60.73
-70.74
-80.32
-88.39
-94.61
-99.54
-104.45
-110.96
-120.47
-133.70
-150.14
-167.70
-182.69
-190.40
-186.38
-168.00
-135.72
-93.36
-47.10
-3.55
32.21
57.89
74.03
82.97
87.54
90.00
91.65
92.99
94.13
95.10
95.89
96.45
96.57
95.97
94.42
91.97
89.02
86.22
84.26
83.54
84.01
85.04
85.67
84.93
82.18
77.39
71.11
64.27
57.75
52.04
47.15
42.68
38.10
33.15
27.89
22.65
17.84
13.66
10.02
6.64
3.20
-0.45
-4.23
-7.95
-11.48
-14.89
-18.48
-22.67
-27.74
-33.64
-39.94
-46.03
-51.29
-55.51
-58.99
-62.49
-66.94
-72.97
-80.68
-89.49
-98.36
-106.27
-112.58
-117.36
-121.39
-125.97
-132.57
-142.39
-155.82
-171.90
-187.91
-199.50
-201.59
-190.01
-163.17
-123.11
-75.24
-26.72
15.77
48.05
69.12
80.77
86.10
88.21
89.25
90.26
91.57
93.12
94.81
96.47
97.80
98.43
97.98
96.28
93.57
90.46
87.84
86.50
86.81
88.44
90.47
91.63
90.78
87.41
81.70
74.56
67.14
60.45
54.97
50.54
46.48
42.02
36.63
30.36
23.78
17.73
12.88
9.46
7.00
4.61
1.38
-3.20
-9.04
-15.46
-21.52
-26.52
-30.28
-33.22
-36.22
-40.15
-45.51
-52.23
-59.69
-66.99
-73.35
-78.40
-82.32
-85.87
-90.10
-96.20
-105.06
-116.85
-130.46
-143.29
-151.41
-150.53
-137.45
-111.49
-75.15
-33.59
6.97
41.20
66.15
81.60
89.30
91.73
90.91
88.03
83.58
77.97
71.87
66.20
61.87
59.38
58.67
59.23
60.40
61.72
63.03
64.40
65.93
67.45
68.54
68.60
67.13
63.89
59.04
53.04
46.46
39.83
33.47
27.53
22.01
16.85
12.01
7.45
3.10
-1.22
-5.77
-10.83
-16.49
-22.59
-28.71
-34.33
-39.09
-43.05
-46.78
-51.09
-56.76
-64.04
-72.54
-81.33
-89.32
-95.80
-100.76
-104.98
-109.82
-116.79
-127.10
-141.10
-157.74
-174.32
-186.55
-189.46
-178.93
-153.31
-114.51
-67.72
-19.91
22.32
54.72
76.10
87.98
93.23
94.77
94.72
94.21
93.71
93.38
93.22
93.14
92.91
92.22
90.76
88.45
85.51
82.48
80.07
78.88
79.15
80.59
82.41
83.55
83.07
80.43
75.69
69.43
62.55
55.89
50.08
45.25
41.17
37.34
33.26
28.60
23.35
17.74
12.19
7.12
2.78
-0.84
-4.05
-7.34
-11.27
-16.23
-22.25
-29.00
-35.81
-42.02
-47.20
-51.47
-55.43
-59.99
-65.93
-73.50
-82.26
-91.28
-99.49
-106.13
-111.20
-115.43
-120.12
-126.74
-136.48
-149.75
-165.70
-181.86
-194.19
-197.82
-188.46
-164.03
-125.88
-78.80
-29.75
14.30
48.43
70.97
83.22
88.27
89.48
89.35
89.19
89.38
89.91
90.67
91.57
92.44
92.99
92.85
91.80
89.92
87.66
85.73
84.83
85.34
87.05
89.14
90.44
89.81
86.66
81.17
74.24
67.13
60.91
56.02
52.13
48.39
43.89
38.14
31.30
24.09
17.42
11.94
7.78
4.45
1.10
-3.02
-8.29
-14.45
-20.80
-26.54
-31.20
-34.90
-38.32
-42.40
-47.92
-55.06
-63.39
-71.96
-79.75
-86.09
-90.92
-94.86
-99.03
-104.74
-113.10
-124.61
-138.66
-153.17
-164.56
-168.43
-160.76
-139.45
-105.46
-62.95
-18.10
22.76
55.04
76.96
89.38
94.72
95.57
93.81
90.40
85.75
80.24
74.49
69.35
65.50
63.25
62.45
62.61
63.22
64.06
65.22
66.95
69.35
72.08
74.21
74.59
72.29
67.03
59.49
51.00
43.02
36.48
31.39
26.90
21.83
15.21
6.84
-2.63
-12.02
-20.19
-26.55
-31.34
-35.47
-40.11
-46.13
-53.70
-62.26
-70.84
-78.53
-84.93
-90.38
-95.77
-102.35
-111.33
-123.54
-138.89
-155.91
-171.47
-181.07
-179.98
-164.91
-135.55
-95.12
-49.56
-5.64
31.13
58.00
75.15
84.68
89.31
91.23
91.68
91.15
89.88
88.15
86.38
84.96
84.11
83.71
83.41
82.87
81.95
80.90
80.24
80.46
81.67
83.38
84.55
83.96
80.73
74.67
66.39
57.14
48.26
40.75
34.81
29.88
24.87
18.71
10.84
1.48
-8.41
-17.54
-24.97
-30.53
-34.96
-39.61
-45.84
-54.38
-64.99
-76.58
-87.72
-97.29
-104.94
-111.24
-117.47
-125.28
-136.15
-150.91
-169.21
-189.01
-206.43
-216.31
-213.60
-195.21
-161.41
-116.27
-66.47
-19.25
19.86
48.44
67.11
78.49
85.65
90.99
95.83
100.52
104.97
108.91
112.07
114.14
114.79
113.78
111.11
107.21
102.89
99.17
96.93
96.54
97.74
99.61
100.94
100.63
98.10
93.42
87.22
80.35
73.56
67.22
61.32
55.56
49.57
43.19
36.51
29.91
23.84
18.63
14.24
10.25
5.94
0.66
-5.91
-13.47
-21.22
-28.21
-33.85
-38.31
-42.50
-47.68
-54.81
-64.07
-74.73
-85.51
-95.11
-102.82
-108.80
-114.05
-120.07
-128.50
-140.50
-156.27
-174.48
-191.95
-204.01
-205.62
-192.94
-165.01
-124.40
-76.74
-29.01
12.54
44.12
65.01
76.99
83.02
85.98
87.76
89.23
90.50
91.45
92.06
92.41
92.62
92.68
92.44
91.79
90.85
90.05
89.99
91.14
93.45
96.24
98.30
98.40
95.76
90.42
83.20
75.30
67.84
61.39
55.77
50.28
44.10
36.67
28.07
18.92
10.07
2.22
-4.54
-10.77
-17.37
-25.13
-34.26
-44.23
-53.98
-62.49
-69.25
-74.64
-79.82
-86.41
-95.97
-109.48
-126.80
-146.25
-164.55
-177.23
-179.75
-168.98
-144.37
-108.61
-66.89
-25.32
10.88
38.74
57.93
69.99
77.19
81.47
83.93
84.99
84.81
83.62
81.92
80.30
79.19
78.75
78.80
79.03
79.21
79.33
79.63
80.41
81.79
83.49
84.81
84.77
82.52
77.65
70.41
61.63
52.49
44.11
37.17
31.66
27.00
22.21
16.40
9.09
0.51
-8.53
-16.97
-23.94
-29.23
-33.37
-37.47
-42.77
-50.13
-59.68
-70.73
-82.08
-92.46
-101.03
-107.75
-113.45
-119.57
-127.80
-139.59
-155.51
-174.79
-194.81
-211.28
-219.01
-213.42
-192.28
-156.79
-111.61
-63.47
-19.10
16.83
42.72
59.77
70.84
78.98
86.37
93.96
101.67
108.86
114.82
118.99
121.09
121.16
119.49
116.59
113.10
109.81
107.42
106.44
106.97
108.64
110.59
111.79
111.29
108.56
103.64
97.12
89.89
82.83
76.55
71.17
66.44
61.88
57.05
51.73
45.98
40.08
34.42
29.40
25.25
21.97
19.35
16.97
14.37
11.15
7.13
2.41
-2.68
-7.72
-12.34
-16.35
-19.81
-23.08
-26.60
-30.83
-35.99
-41.93
-48.14
-53.98
-58.89
-62.80
-66.07
-69.50
-73.97
-80.02
-87.62
-96.13
-104.58
-112.03
-118.04
-122.85
-127.44
-133.21
-141.59
-153.55
-168.94
-186.04
-201.32
-209.95
-207.02
-189.30
-156.63
-112.53
-63.32
-16.16
23.16
51.79
70.01
80.31
85.89
89.37
92.25
95.00
97.59
99.88
101.79
103.26
104.11
104.10
102.99
100.80
97.90
95.01
93.02
92.58
93.83
96.20
98.58
99.72
98.66
95.09
89.41
82.50
75.37
68.81
63.12
58.13
53.39
48.37
42.72
36.42
29.81
23.46
17.96
13.67
10.57
8.20
5.74
2.40
-2.34
-8.44
-15.33
-22.11
-27.92
-32.29
-35.35
-37.84
-40.75
-44.95
-50.82
-58.08
-65.96
-73.45
-79.81
-84.78
-88.81
-92.86
-98.20
-105.99
-116.80
-130.09
-143.88
-154.72
-158.38
-151.08
-130.90
-98.83
-58.80
-16.55
22.08
52.81
73.93
86.00
91.00
91.24
88.52
84.00
78.43
72.50
66.97
62.55
59.71
58.47
58.47
59.15
60.05
60.98
62.05
63.47
65.29
67.22
68.59
68.58
66.54
62.28
56.21
49.17
42.16
35.90
30.62
26.02
21.50
16.54
10.95
5.01
-0.74
-5.75
-9.82
-13.21
-16.48
-20.25
-24.83
-30.08
-35.45
-40.31
-44.26
-47.44
-50.57
-54.65
-60.47
-68.28
-77.47
-86.90
-95.32
-101.92
-106.69
-110.46
-114.62
-120.64
-129.66
-141.97
-156.59
-171.04
-181.38
-183.03
-172.09
-146.95
-109.27
-63.93
-17.62
23.20
54.27
74.41
85.25
89.88
91.45
92.11
92.82
93.63
94.30
94.57
94.41
93.81
92.73
91.08
88.78
85.95
82.99
80.50
79.04
78.87
79.75
80.95
81.52
80.58
77.66
72.75
66.29
59.02
51.70
45.03
39.33
34.53
30.22
25.80
20.84
15.25
9.34
3.66
-1.26
-5.18
-8.21
-10.80
-13.54
-16.99
-21.49
-27.02
-33.18
-39.28
-44.62
-48.75
-51.79
-54.41
-57.62
-62.31
-68.83
-76.83
-85.33
-93.21
-99.60
-104.29
-107.83
-111.41
-116.49
-124.35
-135.57
-149.60
-164.36
-176.28
-180.86
-173.94
-153.14
-119.09
-75.70
-29.17
13.87
48.35
72.00
85.45
91.25
92.53
91.81
90.59
89.49
88.64
88.09
87.86
87.88
87.91
87.56
86.47
84.53
82.04
79.63
78.04
77.75
78.75
80.41
81.72
81.64
79.46
75.06
68.87
61.64
54.15
47.03
40.56
34.75
29.44
24.39
19.35
14.12
8.52
2.50
-3.86
-10.28
-16.34
-21.63
-25.98
-29.56
-32.92
-36.84
-41.96
-48.52
-56.20
-64.15
-71.37
-77.14
-81.30
-84.48
-87.86
-92.86
-100.70
-111.86
-125.65
-139.94
-151.20
-155.17
-148.07
-128.05
-96.15
-56.37
-14.61
23.25
53.03
73.14
84.42
89.00
89.10
86.39
81.76
75.86
69.40
63.29
58.43
55.40
54.21
54.43
55.44
56.71
58.03
59.48
61.16
62.98
64.49
64.97
63.68
60.26
54.88
48.18
41.03
34.10
27.62
21.33
14.72
7.37
-0.72
-9.11
-17.11
-24.10
-29.95
-35.06
-40.30
-46.50
-54.10
-62.91
-72.13
-80.83
-88.27
-94.34
-99.60
-105.19
-112.50
-122.79
-136.62
-153.23
-170.08
-182.99
-187.02
-178.04
-154.47
-118.21
-74.37
-29.68
9.71
39.98
60.34
72.46
79.18
83.12
85.97
88.43
90.58
92.31
93.60
94.49
94.99
95.00
94.36
92.95
90.89
88.65
86.89
86.22
86.82
88.27
89.53
89.31
86.61
81.11
73.33
64.41
55.66
48.03
41.73
36.24
30.60
23.88
15.68
6.33
-3.23
-11.88
-18.84
-24.11
-28.48
-33.18
-39.38
-47.60
-57.56
-68.31
-78.61
-87.53
-94.76
-100.87
-107.04
-114.87
-125.83
-140.68
-158.82
-177.79
-193.39
-200.52
-194.73
-173.94
-139.58
-96.43
-51.17
-10.25
22.08
44.63
58.92
67.84
74.23
79.95
85.68
91.26
96.26
100.26
102.98
104.30
104.11
102.46
99.55
95.86
92.13
89.17
87.70
88.00
89.85
92.39
94.40
94.60
92.08
86.65
78.88
69.96
61.26
53.83
47.98
43.27
38.76
33.42
26.61
18.38
9.38
0.65
-6.93
-12.95
-17.70
-22.09
-27.32
-34.34
-43.49
-54.30
-65.67
-76.30
-85.20
-92.19
-97.91
-103.73
-111.30
-122.04
-136.48
-153.76
-171.26
-184.79
-189.58
-181.69
-159.58
-124.90
-82.28
-37.98
2.05
33.88
56.28
70.37
78.56
83.23
86.00
87.54
87.96
87.26
85.73
83.87
82.34
81.59
81.71
82.44
83.27
83.76
83.68
83.10
82.25
81.28
80.08
78.20
75.03
70.07
63.12
54.50
44.90
35.20
26.15
18.16
11.20
4.87
-1.49
-8.54
-16.75
-26.27
-36.74
-47.51
-57.72
-66.71
-74.27
-80.78
-87.13
-94.56
-104.27
-117.18
-133.35
-151.62
-169.31
-182.41
-186.53
-178.19
-156.27
-122.72
-82.17
-40.58
-3.33
26.26
47.50
61.83
71.61
78.98
85.15
90.35
94.27
96.60
97.35
96.91
95.90
94.84
94.03
93.56
93.39
93.56
94.14
95.12
96.26
96.99
96.51
94.12
89.46
82.77
74.69
66.06
57.51
49.26
41.11
32.70
23.79
14.45
5.13
-3.64
-11.48
-18.46
-25.14
-32.33
-40.77
-50.70
-61.80
-73.25
-84.17
-94.05
-103.04
-111.96
-122.10
-134.83
-151.00
-170.32
-190.83
-208.86
-219.59
-218.42
-202.61
-172.56
-132.03
-87.10
-44.18
-8.04
19.45
39.17
53.74
66.00
77.83
89.77
101.25
111.23
118.80
123.52
125.46
125.12
123.16
120.29
117.13
114.26
112.16
111.20
111.55
113.01
114.99
116.54
116.63
114.44
109.67
102.66
94.25
85.54
77.53
70.73
65.10
60.04
54.68
48.26
40.36
31.14
21.24
11.54
2.84
-4.44
-10.45
-15.80
-21.40
-28.06
-36.27
-46.00
-56.68
-67.47
-77.51
-86.28
-93.83
-100.74
-108.11
-117.25
-129.30
-144.69
-162.56
-180.40
-194.16
-199.27
-192.01
-170.99
-137.91
-97.28
-54.99
-16.44
14.84
37.87
53.71
64.51
72.38
78.71
84.11
88.56
91.86
93.92
94.82
94.80
94.19
93.27
92.23
91.32
90.76
90.83
91.64
93.06
94.55
95.32
94.53
91.62
86.51
79.64
71.77
63.63
55.71
48.04
40.42
32.58
24.45
16.27
8.43
1.27
-5.24
-11.48
-18.10
-25.64
-34.28
-43.72
-53.25
-62.12
-69.90
-76.73
-83.35
-90.96
-100.86
-113.87
-129.88
-147.28
-162.99
-172.94
-173.17
-161.16
-136.88
-103.07
-64.46
-26.39
6.78
32.76
51.43
64.21
73.04
79.48
84.30
87.65
89.43
89.70
88.86
87.57
86.43
85.78
85.55
85.49
85.32
85.01
84.76
84.87
85.42
86.14
86.40
85.42
82.67
78.06
72.02
65.31
58.67
52.58
47.03
41.73
36.30
30.57
24.69
19.08
14.11
9.84
5.92
1.73
-3.32
-9.46
-16.45
-23.63
-30.32
-36.15
-41.25
-46.18
-51.72
-58.45
-66.51
-75.53
-84.80
-93.55
-101.35
-108.20
-114.69
-121.86
-130.95
-143.02
-158.29
-175.58
-191.97
-203.22
-204.79
-193.46
-168.64
-132.87
-91.21
-49.64
-13.16
15.38
35.70
49.39
58.86
66.36
73.35
80.42
87.48
94.05
99.51
103.31
105.15
104.99
103.13
100.15
96.76
93.75
91.74
91.10
91.80
93.38
95.01
95.75
94.78
91.71
86.65
80.19
73.10
66.16
59.85
54.32
49.36
44.59
39.60
34.15
28.32
22.47
17.14
12.77
9.49
7.01
4.73
1.98
-1.73
-6.50
-12.08
-17.93
-23.47
-28.30
-32.35
-35.96
-39.73
-44.29
-50.10
-57.15
-64.93
-72.65
-79.51
-85.03
-89.27
-92.87
-96.87
-102.52
-110.82
-121.99
-135.08
-147.67
-156.19
-156.79
-146.61
-124.97
-93.82
-57.42
-21.01
10.75
35.04
51.27
60.73
65.54
67.80
68.91
69.56
69.97
70.15
70.13
69.94
69.57
68.88
67.75
66.17
64.37
62.82
62.03
62.34
63.61
65.24
66.28
65.76
63.07
58.19
51.71
44.53
37.56
31.38
26.04
21.22
16.37
11.08
5.22
-0.89
-6.72
-11.73
-15.67
-18.79
-21.74
-25.34
-30.17
-36.36
-43.45
-50.63
-57.06
-62.25
-66.29
-69.87
-74.12
-80.23
-88.95
-100.09
-112.15
-122.41
-127.45
-124.15
-110.85
-88.01
-58.29
-25.82
5.00
30.71
49.51
61.38
67.56
69.77
69.59
68.07
65.72
62.73
59.26
55.63
52.26
49.58
47.81
46.92
46.67
46.80
47.18
47.82
48.80
50.01
51.08
51.40
50.34
47.55
43.07
37.35
31.06
24.82
19.11
14.13
9.89
6.15
2.55
-1.34
-5.93
-11.35
-17.37
-23.51
-29.14
-33.89
-37.77
-41.24
-44.99
-49.63
-55.41
-62.09
-69.05
-75.47
-80.72
-84.59
-87.43
-90.05
-93.58
-99.14
-107.46
-118.44
-130.77
-141.91
-148.37
-146.65
-134.42
-111.50
-80.19
-44.71
-9.94
19.96
42.61
57.62
66.20
70.31
71.95
72.59
73.15
73.92
74.83
75.61
76.00
75.82
74.98
73.48
71.37
68.83
66.17
63.82
62.25
61.69
62.01
62.56
62.47
60.90
57.44
52.31
46.21
40.05
34.45
29.57
25.10
20.54
15.60
10.34
5.21
0.70
-2.89
-5.67
-8.10
-10.76
-14.12
-18.31
-23.09
-27.97
-32.46
-36.27
-39.51
-42.62
-46.20
-50.77
-56.44
-62.89
-69.42
-75.27
-79.95
-83.54
-86.66
-90.33
-95.72
-103.64
-114.15
-126.12
-137.17
-143.95
-143.00
-131.84
-109.99
-79.40
-44.01
-8.66
22.33
46.26
62.34
71.45
75.34
75.93
74.80
73.04
71.30
69.85
68.70
67.73
66.71
65.51
64.05
62.35
60.58
59.01
57.94
57.68
58.35
59.71
61.14
61.79
60.83
57.86
53.03
46.98
40.63
34.73
29.65
25.30
21.25
16.90
11.79
5.77
-0.90
-7.60
-13.66
-18.60
-22.34
-25.31
-28.22
-31.81
-36.48
-42.16
-48.30
-54.18
-59.18
-63.05
-66.10
-69.11
-73.20
-79.43
-88.46
-99.99
-112.46
-123.02
-128.05
-124.26
-109.76
-85.01
-52.87
-17.92
15.00
42.05
61.32
72.81
77.91
78.50
76.28
72.41
67.63
62.46
57.43
53.03
49.69
47.60
46.63
46.46
46.79
47.46
48.51
50.03
51.88
53.58
54.37
53.46
50.41
45.37
39.01
32.28
25.91
20.22
14.96
9.60
3.66
-3.00
-10.03
-16.82
-22.75
-27.58
-31.52
-35.28
-39.73
-45.52
-52.72
-60.81
-68.84
-75.88
-81.47
-85.83
-89.87
-94.95
-102.45
-113.18
-126.91
-141.92
-154.95
-161.86
-158.65
-142.93
-115.04
-78.21
-37.77
0.51
32.09
54.78
68.77
75.96
78.79
79.46
79.41
79.36
79.53
79.82
80.05
79.98
79.39
78.18
76.40
74.28
72.27
70.90
70.62
71.59
73.46
75.42
76.36
75.27
71.64
65.62
58.02
49.97
42.47
36.04
30.61
25.57
20.16
13.77
6.23
-2.15
-10.67
-18.64
-25.60
-31.59
-37.18
-43.16
-50.22
-58.59
-67.90
-77.30
-85.86
-93.00
-98.76
-103.88
-109.64
-117.42
-128.33
-142.58
-159.02
-174.86
-186.00
-187.94
-177.27
-152.99
-117.26
-74.94
-32.17
5.54
34.73
54.64
66.68
73.41
77.35
80.32
83.19
86.08
88.78
90.95
92.34
92.80
92.27
90.81
88.64
86.19
84.04
82.80
82.87
84.20
86.27
88.20
89.05
88.14
85.27
80.73
75.15
69.21
63.40
57.92
52.63
47.26
41.58
35.61
29.58
23.86
18.71
14.13
9.80
5.25
0.13
-5.59
-11.55
-17.19
-22.04
-26.04
-29.62
-33.60
-38.77
-45.52
-53.63
-62.30
-70.58
-77.73
-83.58
-88.59
-93.74
-100.24
-109.28
-121.49
-136.48
-152.40
-165.86
-172.52
-168.32
-150.87
-120.59
-80.84
-36.98
5.26
41.40
69.17
88.49
100.66
107.36
109.88
109.01
105.26
99.24
91.84
84.10
76.89
70.70
65.59
61.38
57.99
55.55
54.38
54.70
56.40
58.85
61.09
62.10
61.17
58.21
53.71
48.50
43.36
38.66
34.21
29.43
23.71
16.80
9.02
1.09
-6.19
-12.33
-17.48
-22.25
-27.50
-33.85
-41.43
-49.75
-57.99
-65.33
-71.40
-76.43
-81.40
-87.67
-96.65
-109.15
-124.80
-141.65
-156.21
-164.12
-161.39
-145.78
-117.85
-80.97
-40.46
-1.91
30.38
54.34
70.12
79.31
83.93
85.62
85.48
84.12
81.98
79.57
77.37
75.77
74.88
74.58
74.64
74.92
75.39
76.18
77.42
79.02
80.54
81.28
80.45
77.51
72.37
65.51
57.80
50.11
42.97
36.38
29.83
22.71
14.63
5.72
-3.42
-12.00
-19.48
-25.84
-31.65
-37.79
-45.06
-53.79
-63.66
-73.85
-83.44
-91.79
-98.90
-105.46
-112.70
-122.11
-134.93
-151.54
-170.79
-189.64
-203.41
-206.96
-196.36
-170.51
-131.91
-86.09
-39.88
0.79
32.50
54.72
69.19
78.64
85.55
91.57
97.40
103.04
108.18
112.43
115.46
117.08
117.25
116.09
113.94
111.34
109.00
107.60
107.58
108.86
110.76
112.18
111.96
109.33
104.21
97.23
89.37
81.66
74.72
68.65
63.05
57.33
50.97
43.77
35.97
28.12
20.88
14.61
9.28
4.40
-0.72
-6.65
-13.55
-21.08
-28.55
-35.28
-40.94
-45.78
-50.56
-56.25
-63.58
-72.67
-82.95
-93.41
-102.97
-111.00
-117.60
-123.61
-130.39
-139.47
-152.02
-168.31
-187.03
-205.05
-217.71
-219.94
-207.94
-180.73
-140.88
-93.93
-46.70
-5.17
27.12
49.53
63.71
72.39
78.18
82.91
87.50
92.18
96.76
100.85
103.99
105.72
105.75
104.03
100.91
97.10
93.58
91.29
90.81
92.08
94.35
96.39
97.01
95.40
91.47
85.75
79.04
72.03
65.03
57.96
50.55
42.63
34.30
25.95
18.08
11.06
4.91
-0.75
-6.59
-13.23
-20.99
-29.77
-38.99
-47.99
-56.27
-63.81
-71.09
-79.05
-88.82
-101.27
-116.52
-133.46
-149.41
-160.50
-162.50
-152.29
-129.06
-94.91
-54.47
-13.42
23.13
52.00
72.31
85.10
92.29
95.77
96.88
96.35
94.61
92.06
89.25
86.72
84.86
83.84
83.52
83.75
84.40
85.54
87.19
89.25
91.32
92.75
92.81
91.07
87.51
82.56
76.83
70.89
65.01
59.15
53.12
46.82
40.36
34.13
28.55
23.88
19.99
16.43
12.56
7.89
2.30
-3.94
-10.27
-16.18
-21.40
-26.08
-30.81
-36.45
-43.98
-54.21
-67.31
-82.29
-96.54
-105.97
-105.94
-92.77
-65.20
-25.20
22.57
72.22
118.40
157.62
188.45
210.97
225.87
233.80
235.34
231.18
222.27
209.81
194.85
178.06
159.63
139.43
117.43
93.95
69.81
46.26
24.70
6.31
-8.25
-19.04
-26.67
-32.11
-36.26
-39.77
-43.04
-46.34
-49.97
-54.40
-60.10
-67.43
-76.38
-86.53
-97.16
-107.50
-116.96
-125.35
-132.86
-139.95
-147.13
-154.79
-163.13
-172.02
-181.05
-189.47
-196.48
-201.46
-204.15
-204.83
-204.00
-202.16
-199.54
-196.21
-192.32
-188.41
-185.42
-184.29
-185.50
-188.59
-192.23
-194.72
-194.67
-191.45
-185.42
-177.76
-170.26
-164.86
-163.20
-165.77
-171.25
-176.28
-176.15
-166.26
-143.96
-109.79
-67.52
-23.01
18.01
51.78
77.32
95.88
109.64
120.51
129.49
136.72
141.72
144.22
144.49
143.39
141.96
141.03
141.05
142.15
144.35
147.26
150.81
155.36
161.51
169.54
178.95
188.57
196.89
202.55
203.48
198.72
189.15
177.43
166.62
159.04
155.81
156.84
161.12
164.30
162.17
152.56
135.91
113.96
88.71
62.29
37.00
14.80
-7.56
-33.81
-65.69
-101.84
-139.76
-177.46
-213.44
-246.45
-275.54
-305.86
-342.22
-386.00
-434.51
-484.24
-533.15
-580.12
-623.97
-628.14
-569.97
-453.70
-309.84
-172.11
-59.99
22.30
79.95
121.20
153.51
176.27
187.25
186.00
177.96
169.83
166.70
171.83
186.34
209.68
235.75
258.42
274.44
284.68
291.98
294.85
292.92
286.46
276.49
261.65
241.03
215.52
188.27
162.78
141.38
125.16
113.27
103.41
91.39
73.91
50.21
22.35
-6.30
-32.74
-54.91
-72.50
-86.63
-99.51
-112.97
-127.59
-142.52
-156.20
-167.22
-174.63
-178.50
-179.87
-180.33
-181.54
-184.76
-190.57
-198.92
-209.27
-220.78
-232.83
-245.16
-257.87
-271.01
-284.08
-295.47
-302.24
-300.61
-286.95
-259.14
-217.48
-164.83
-105.64
-44.36
15.98
74.61
132.90
193.42
258.39
328.04
399.56
467.02
522.77
559.82
574.53
568.12
546.28
516.92
487.09
460.85
438.90
419.95
402.65
386.71
372.62
360.57
349.51
337.20
321.34
300.85
276.57
250.88
226.53
205.31
187.19
170.52
152.87
132.26
108.14
81.74
55.51
32.01
12.83
-2.16
-14.70
-27.40
-42.72
-62.24
-86.31
-113.94
-143.29
-172.22
-199.24
-224.31
-249.04
-275.99
-307.23
-342.94
-380.50
-414.84
-439.79
-450.10
-443.13
-419.74
-384.09
-342.41
-301.34
-266.27
-240.18
-223.10
-212.62
-205.02
-196.63
-184.98
-169.07
-149.13
-126.00
-100.86
-74.98
-49.90
-27.18
-8.24
6.08
15.85
22.11
26.42
30.26
34.47
38.96
43.04
45.93
47.29
47.52
47.50
48.24
50.40
54.03
58.49
62.68
65.45
65.92
63.96
60.18
55.72
51.80
49.20
47.97
47.49
46.74
44.79
41.13
35.72
28.95
21.37
13.53
5.95
-0.97
-6.99
-12.14
-16.73
-21.33
-26.56
-32.92
-40.61
-49.51
-59.22
-69.27
-79.22
-88.73
-97.49
-105.09
-110.94
-114.32
-114.54
-111.29
-104.74
-95.64
-85.24
-75.18
-67.26
-63.05
-63.47
-68.22
-75.58
-82.56
-85.80
-82.69
-72.43
-56.32
-37.19
-18.35
-2.41
9.36
16.96
21.31
23.74
25.55
27.79
30.97
34.92
38.83
41.44
41.54
38.47
32.49
24.72
16.80
10.38
6.54
5.47
6.43
7.93
8.31
6.23
1.21
-6.36
-15.36
-24.51
-32.90
-40.21
-46.63
-52.56
-58.15
-63.14
-66.86
-68.52
-67.66
-64.27
-59.03
-52.98
-47.21
-42.39
-38.54
-34.92
-30.41
-23.92
-14.94
-3.78
8.35
19.83
29.10
35.30
38.64
40.55
43.40
49.86
61.90
79.78
101.35
122.26
137.08
141.34
133.40
115.47
93.07
73.11
61.27
59.99
67.74
80.07
91.69
98.64
99.53
95.37
88.45
80.84
73.52
66.36
58.97
51.56
45.12
40.93
39.50
39.98
40.30
38.28
32.92
25.08
17.23
12.25
12.09
16.91
25.12
34.27
42.10
47.37
50.00
50.69
50.30
49.31
47.65
44.88
40.54
34.46
27.02
18.99
11.36
4.95
0.15
-3.21
-5.74
-8.19
-11.19
-15.03
-19.56
-24.35
-28.93
-33.02
-36.77
-40.66
-45.36
-51.40
-58.90
-67.45
-76.27
-84.51
-91.68
-97.86
-103.74
-110.41
-118.99
-130.18
-143.94
-159.23
-173.88
-184.85
-188.69
-182.43
-164.62
-136.13
-100.19
-61.64
-25.57
4.28
26.32
41.24
51.15
58.40
64.69
70.64
76.04
80.39
83.37
85.04
85.75
85.90
85.73
85.33
84.72
84.02
83.60
83.93
85.40
87.94
90.96
93.34
93.86
91.65
86.56
79.29
71.06
63.15
56.37
50.89
46.21
41.60
36.35
30.15
23.10
15.71
8.58
2.26
-2.98
-7.31
-11.30
-15.73
-21.34
-28.48
-36.92
-45.91
-54.44
-61.70
-67.46
-72.21
-77.02
-83.22
-91.99
-103.87
-118.35
-133.60
-146.54
-153.36
-150.59
-136.28
-110.91
-77.55
-40.96
-6.22
22.81
44.39
58.86
67.90
73.43
76.91
78.95
79.64
78.99
77.23
74.81
72.37
70.33
68.82
67.68
66.69
65.77
65.12
65.16
66.25
68.37
70.94
72.91
73.07
70.55
65.28
58.05
50.26
43.27
37.89
34.00
30.67
26.62
20.87
13.20
4.20
-4.97
-13.15
-19.68
-24.66
-28.95
-33.70
-39.87
-47.77
-56.96
-66.43
-75.10
-82.26
-87.89
-92.70
-97.93
-104.99
-115.12
-128.84
-145.38
-162.42
-176.04
-181.61
-175.20
-155.13
-122.82
-82.70
-40.80
-2.83
27.42
48.85
62.61
71.05
76.50
80.56
83.93
86.70
88.76
90.01
90.48
90.22
89.33
87.95
86.26
84.56
83.20
82.46
82.46
83.10
84.01
84.64
84.40
82.78
79.51
74.55
68.16
60.68
52.45
43.77
34.80
25.76
16.86
8.33
0.34
-7.19
-14.59
-22.35
-30.81
-40.00
-49.51
-58.71
-67.00
-74.18
-80.59
-87.11
-94.93
-105.20
-118.65
-135.02
-152.61
-168.20
-177.53
-176.44
-162.38
-135.58
-99.29
-58.86
-20.08
12.62
37.20
53.99
64.90
72.23
77.73
82.32
86.20
89.26
91.36
92.48
92.76
92.38
91.49
90.20
88.67
87.19
86.12
85.88
86.74
88.58
90.84
92.59
92.86
90.99
86.89
81.11
74.53
68.08
62.38
57.54
53.28
49.08
44.44
39.15
33.31
27.31
21.71
16.95
13.25
10.38
7.80
4.77
0.69
-4.71
-11.14
-17.91
-24.17
-29.28
-33.17
-36.37
-39.87
-44.64
-51.23
-59.47
-68.51
-77.21
-84.61
-90.35
-94.90
-99.39
-105.31
-114.04
-126.28
-141.62
-158.15
-172.45
-180.16
-177.09
-160.68
-131.16
-91.85
-48.34
-6.82
27.75
52.93
68.85
77.50
81.42
82.65
82.35
80.95
78.72
76.10
73.77
72.37
72.17
73.01
74.34
75.61
76.54
77.33
78.43
80.24
82.73
85.33
86.98
86.60
83.48
77.62
69.78
61.15
53.02
46.22
40.87
36.39
31.79
26.11
18.85
10.18
0.89
-7.98
-15.50
-21.28
-25.62
-29.41
-33.85
-39.89
-47.91
-57.49
-67.60
-77.07
-85.07
-91.46
-96.93
-102.71
-110.29
-120.90
-135.01
-151.87
-169.06
-182.67
-187.99
-181.01
-159.93
-126.19
-84.31
-40.58
-0.97
30.55
52.83
67.12
75.89
81.57
85.74
89.01
91.43
92.90
93.47
93.35
92.74
91.80
90.57
89.08
87.53
86.30
85.83
86.50
88.31
90.85
93.32
94.72
94.22
91.42
86.49
80.08
73.11
66.46
60.70
55.91
51.74
47.51
42.56
36.54
29.52
22.10
15.09
9.23
4.83
1.61
-1.18
-4.50
-9.06
-15.07
-22.09
-29.30
-35.85
-41.23
-45.54
-49.47
-54.00
-60.05
-68.02
-77.59
-87.86
-97.67
-106.10
-112.90
-118.65
-124.64
-132.45
-143.46
-158.19
-175.75
-193.60
-207.62
-213.01
-205.59
-183.39
-147.69
-102.94
-55.60
-12.10
22.98
47.99
63.94
73.43
79.22
83.34
86.72
89.60
91.96
93.82
95.27
96.32
96.81
96.48
95.20
93.16
90.92
89.32
89.08
90.53
93.36
96.69
99.31
100.14
98.56
94.60
88.84
82.15
75.40
69.15
63.58
58.57
53.78
48.87
43.63
38.03
32.23
26.56
21.36
16.92
13.32
10.40
7.75
4.84
1.19
-3.46
-9.03
-15.15
-21.30
-26.95
-31.85
-36.09
-40.15
-44.69
-50.33
-57.33
-65.46
-74.01
-82.11
-89.02
-94.50
-98.98
-103.47
-109.32
-117.76
-129.44
-143.92
-159.24
-171.91
-177.52
-171.91
-152.72
-120.50
-78.97
-34.01
8.11
42.63
67.39
82.84
91.03
94.33
94.48
92.35
88.39
83.07
77.28
72.14
68.66
67.34
67.99
69.96
72.43
74.77
76.77
78.55
80.31
82.08
83.56
84.09
82.96
79.67
74.21
67.11
59.30
51.76
45.23
39.97
35.74
31.90
27.68
22.50
16.10
8.71
0.98
-6.27
-12.32
-16.92
-20.43
-23.80
-28.14
-34.31
-42.48
-51.99
-61.64
-70.17
-76.74
-81.32
-84.69
-88.28
-93.82
-102.89
-116.43
-134.10
-153.74
-171.34
-181.78
-180.32
-164.30
-134.45
-94.89
-51.82
-11.59
21.28
45.00
60.30
69.37
74.58
77.65
79.44
80.16
79.82
78.48
76.36
73.75
70.89
67.98
65.14
62.57
60.50
59.35
59.45
60.95
63.55
66.53
68.83
69.40
67.60
63.45
57.66
51.33
45.50
40.78
37.08
33.76
29.98
25.17
19.27
12.81
6.60
1.43
-2.39
-5.10
-7.39
-10.15
-14.05
-19.24
-25.36
-31.63
-37.27
-41.85
-45.61
-49.30
-53.95
-60.37
-68.75
-78.54
-88.61
-97.83
-105.43
-111.44
-116.70
-122.68
-131.03
-143.07
-159.16
-178.13
-197.01
-211.23
-215.65
-206.19
-181.36
-143.20
-96.90
-49.27
-6.63
26.99
50.50
65.34
74.20
79.69
83.62
86.85
89.62
91.98
93.92
95.46
96.52
96.96
96.65
95.64
94.23
92.97
92.53
93.37
95.54
98.52
101.35
102.86
102.11
98.75
93.10
86.06
78.73
72.05
66.49
61.96
57.98
53.92
49.24
43.74
37.57
31.15
25.09
19.89
15.82
12.74
10.17
7.46
3.93
-0.79
-6.71
-13.36
-20.05
-26.09
-31.10
-35.19
-39.00
-43.42
-49.26
-56.87
-65.94
-75.60
-84.75
-92.55
-98.78
-104.02
-109.52
-116.79
-127.17
-141.15
-157.90
-174.90
-188.14
-192.90
-185.17
-163.16
-128.24
-84.83
-39.06
3.02
37.21
61.92
77.84
86.98
91.42
92.76
91.93
89.54
86.18
82.54
79.35
77.19
76.40
76.96
78.61
80.96
83.68
86.54
89.49
92.49
95.39
97.79
99.04
98.49
95.68
90.63
83.85
76.15
68.45
61.37
55.19
49.77
44.67
39.34
33.26
26.14
17.99
9.15
0.20
-8.20
-15.55
-21.76
-27.20
-32.64
-38.94
-46.72
-56.06
-66.49
-77.12
-87.07
-95.83
-103.44
-110.56
-118.31
-127.96
-140.64
-156.83
-175.79
-195.12
-210.71
-217.57
-211.31
-189.90
-154.69
-110.34
-63.33
-19.92
15.66
41.92
59.80
71.44
79.10
84.42
88.28
91.11
93.16
94.58
95.51
95.98
95.98
95.53
94.76
93.99
93.73
94.47
96.50
99.71
103.52
106.95
108.88
108.48
105.43
100.05
93.18
85.86
78.99
73.04
67.94
63.14
57.93
51.77
44.55
36.71
29.01
22.25
16.81
12.51
8.62
4.19
-1.53
-8.79
-17.21
-25.97
-34.23
-41.49
-47.83
-53.92
-60.65
-68.77
-78.53
-89.58
-101.08
-112.08
-121.96
-130.70
-139.01
-148.17
-159.71
-174.86
-193.88
-215.37
-235.98
-250.85
-254.66
-243.51
-216.34
-175.74
-127.27
-77.85
-33.61
1.69
27.20
44.38
55.82
64.12
71.13
77.85
84.54
91.06
97.01
101.95
105.50
107.49
107.97
107.36
106.27
105.46
105.64
107.25
110.26
114.17
118.03
120.73
121.37
119.51
115.35
109.59
103.25
97.21
92.07
87.90
84.32
80.66
76.27
70.70
63.97
56.53
49.12
42.52
37.18
33.06
29.62
26.00
21.39
15.31
7.85
-0.38
-8.50
-15.70
-21.70
-26.84
-31.94
-38.01
-45.73
-55.18
-65.78
-76.52
-86.41
-94.86
-101.93
-108.30
-115.18
-123.98
-135.92
-151.51
-169.87
-188.45
-203.13
-209.11
-202.42
-181.30
-147.18
-104.34
-58.69
-15.99
19.62
46.39
64.71
76.23
82.88
86.24
87.29
86.64
84.78
82.24
79.69
77.78
76.96
77.41
79.01
81.46
84.45
87.78
91.34
95.03
98.59
101.53
103.16
102.83
100.18
95.30
88.71
81.21
73.61
66.48
60.04
54.14
48.39
42.32
35.55
27.88
19.42
10.54
1.77
-6.33
-13.39
-19.45
-24.95
-30.68
-37.50
-45.98
-56.19
-67.64
-79.41
-90.54
-100.44
-109.13
-117.36
-126.46
-137.99
-153.20
-172.39
-194.22
-215.49
-231.46
-237.00
-228.20
-203.84
-166.07
-120.01
-72.13
-28.44
7.19
33.59
51.99
64.84
74.69
83.33
91.50
99.15
105.82
111.09
114.76
116.90
117.79
117.77
117.25
116.69
116.58
117.37
119.33
122.33
125.88
129.07
130.88
130.53
127.65
122.46
115.65
108.15
100.82
94.22
88.48
83.32
78.25
72.74
66.45
59.36
51.75
44.10
36.93
30.63
25.29
20.67
16.24
11.31
5.34
-1.93
-10.35
-19.33
-28.10
-36.05
-42.95
-49.14
-55.41
-62.70
-71.68
-82.45
-94.48
-106.79
-118.39
-128.66
-137.70
-146.28
-155.72
-167.52
-182.83
-201.80
-222.98
-243.06
-257.25
-260.52
-249.14
-222.23
-182.26
-134.54
-85.56
-41.06
-4.62
22.83
42.43
56.43
67.08
76.14
84.63
92.93
100.97
108.33
114.41
118.61
120.56
120.35
118.62
116.40
114.81
114.71
116.45
119.72
123.72
127.39
129.67
129.82
127.55
123.07
117.00
110.16
103.31
96.92
91.07
85.53
79.98
74.18
68.09
61.86
55.70
49.79
44.21
39.00
34.17
29.72
25.56
21.48
17.10
12.04
6.03
-0.85
-8.18
-15.33
-21.67
-26.95
-31.38
-35.67
-40.75
-47.35
-55.68
-65.37
-75.51
-85.12
-93.49
-100.51
-106.69
-113.09
-120.97
-131.47
-145.18
-161.52
-178.42
-192.32
-198.86
-194.10
-175.96
-145.21
-105.45
-62.09
-20.73
14.36
41.12
59.56
71.09
77.58
80.68
81.54
80.92
79.33
77.30
75.33
73.89
73.33
73.71
74.93
76.79
79.08
81.71
84.62
87.65
90.48
92.62
93.49
92.65
89.88
85.25
79.12
72.02
64.50
57.12
50.25
44.09
38.52
33.17
27.57
21.24
13.97
5.92
-2.45
-10.44
-17.49
-23.35
-28.30
-33.04
-38.49
-45.35
-53.86
-63.63
-73.81
-83.50
-92.05
-99.38
-106.00
-112.89
-121.26
-132.23
-146.40
-163.34
-181.16
-196.40
-204.68
-201.85
-185.51
-156.04
-116.80
-73.15
-30.87
5.48
33.64
53.55
66.74
75.27
80.95
84.98
87.97
90.18
91.67
92.49
92.67
92.27
91.36
90.11
88.79
87.74
87.33
87.78
89.12
91.05
93.01
94.26
94.08
91.99
87.88
82.06
75.11
67.72
60.43
53.55
47.12
40.95
34.77
28.28
21.23
13.53
5.31
-3.06
-11.06
-18.18
-24.18
-29.22
-33.88
-38.99
-45.31
-53.26
-62.73
-73.12
-83.53
-93.16
-101.55
-108.88
-115.94
-123.95
-134.27
-147.92
-164.92
-183.83
-201.57
-213.76
-215.90
-204.73
-179.57
-142.76
-99.13
-54.53
-14.21
18.48
42.50
58.73
69.15
75.99
81.09
85.64
90.16
94.58
98.45
101.18
102.30
101.63
99.40
96.19
92.86
90.30
89.25
90.06
92.54
95.94
99.11
100.85
100.32
97.27
92.08
85.64
78.88
72.49
66.68
61.23
55.72
49.79
43.37
36.70
30.23
24.35
19.16
14.43
9.65
4.37
-1.65
-8.26
-14.97
-21.21
-26.66
-31.38
-35.88
-40.88
-46.99
-54.41
-62.84
-71.58
-79.83
-87.06
-93.27
-99.05
-105.42
-113.59
-124.58
-138.68
-155.02
-171.29
-183.88
-188.61
-181.95
-162.29
-130.69
-90.84
-47.98
-7.46
26.65
52.35
69.59
79.66
84.31
85.20
83.63
80.52
76.64
72.64
69.09
66.39
64.69
63.96
64.03
64.81
66.30
68.56
71.57
75.03
78.30
80.48
80.71
78.51
73.94
67.59
60.30
52.82
45.54
38.41
31.14
23.43
15.23
6.80
-1.42
-9.05
-16.03
-22.60
-29.31
-36.68
-45.00
-54.15
-63.65
-72.81
-81.08
-88.30
-94.84
-101.65
-110.01
-121.15
-135.56
-152.43
-169.27
-182.14
-186.54
-178.89
-157.79
-124.81
-84.21
-41.65
-2.55
29.36
52.71
68.15
77.60
83.13
86.37
88.24
89.08
88.97
88.00
86.40
84.54
82.79
81.45
80.66
80.45
80.87
81.97
83.78
86.13
88.61
90.53
91.14
89.81
86.28
80.76
73.79
66.05
58.16
50.50
43.26
36.43
29.92
23.62
17.33
10.81
3.87
-3.60
-11.45
-19.29
-26.63
-33.10
-38.73
-43.98
-49.66
-56.56
-65.12
-75.25
-86.33
-97.47
-107.84
-117.05
-125.25
-133.25
-142.29
-153.77
-168.76
-187.26
-207.62
-226.26
-238.26
-238.61
-223.96
-194.03
-151.97
-103.55
-55.42
-13.08
20.33
44.38
60.63
71.50
79.36
85.92
92.15
98.39
104.53
110.09
114.42
116.93
117.27
115.61
112.59
109.23
106.61
105.60
106.51
109.07
112.47
115.52
117.07
116.29
112.96
107.46
100.63
93.48
86.76
80.77
75.25
69.63
63.38
56.27
48.55
40.86
33.85
27.93
23.02
18.57
13.81
8.09
1.22
-6.51
-14.39
-21.72
-28.09
-33.64
-39.01
-45.04
-52.41
-61.33
-71.34
-81.59
-91.16
-99.44
-106.48
-112.97
-120.15
-129.42
-141.90
-157.85
-176.04
-193.52
-205.90
-208.43
-197.48
-172.01
-134.23
-89.12
-42.91
-1.26
32.23
56.53
72.62
82.50
88.16
91.08
92.14
91.90
90.78
89.18
87.48
85.91
84.59
83.59
83.03
83.13
84.13
86.20
89.16
92.45
95.19
96.45
95.52
92.23
86.88
80.19
72.89
65.51
58.18
50.68
42.66
33.89
24.47
14.81
5.49
-3.06
-10.79
-18.06
-25.53
-33.80
-43.14
-53.36
-63.87
-74.02
-83.38
-91.93
-100.20
-109.11
-119.83
-133.36
-149.99
-168.67
-186.66
-199.76
-203.31
-193.68
-169.70
-133.40
-89.56
-44.28
-3.14
30.29
54.93
71.73
82.71
89.87
94.62
97.68
99.34
99.74
99.11
97.82
96.32
94.99
94.07
93.65
93.72
94.26
95.26
96.78
98.75
100.85
102.44
102.66
100.66
95.99
88.79
79.81
70.20
61.06
53.09
46.35
40.31
34.10
26.90
18.26
8.31
-2.26
-12.47
-21.44
-28.77
-34.74
-40.27
-46.54
-54.53
-64.57
-76.24
-88.53
-100.30
-110.79
-119.86
-128.12
-136.69
-146.98
-160.32
-177.41
-197.71
-218.88
-236.80
-246.23
-242.34
-222.38
-186.99
-140.25
-88.50
-38.47
4.64
38.23
62.34
78.76
89.98
98.21
104.99
111.07
116.61
121.40
125.01
127.09
127.44
126.13
123.54
120.31
117.21
114.98
114.14
114.89
116.95
119.59
121.84
122.69
121.45
117.88
112.28
105.28
97.62
89.94
82.66
75.94
69.76
63.97
58.29
52.47
46.36
39.97
33.56
27.49
22.09
17.52
13.63
10.00
6.06
1.31
-4.53
-11.37
-18.79
-26.15
-32.90
-38.79
-44.04
-49.30
-55.41
-62.98
-72.13
-82.37
-92.77
-102.41
-110.66
-117.56
-123.75
-130.41
-138.99
-150.77
-166.33
-184.94
-204.08
-219.50
-226.09
-219.39
-197.25
-160.85
-114.59
-64.89
-18.18
20.81
49.96
69.62
81.68
88.45
91.88
93.31
93.56
93.17
92.56
92.00
91.60
91.29
90.92
90.44
90.01
90.00
90.86
92.87
95.91
99.38
102.32
103.60
102.36
98.19
91.42
82.92
73.85
65.23
57.55
50.67
43.89
36.39
27.64
17.70
7.26
-2.71
-11.37
-18.50
-24.58
-30.66
-37.78
-46.55
-56.78
-67.63
-78.03
-87.19
-95.03
-102.15
-109.72
-119.10
-131.41
-147.12
-165.47
-184.17
-199.39
-206.45
-201.13
-181.17
-147.37
-103.61
-55.82
-10.24
28.34
57.53
77.42
89.77
96.93
100.95
103.18
104.26
104.42
103.79
102.54
100.95
99.32
97.87
96.69
95.84
95.40
95.56
96.46
98.13
100.26
102.20
103.11
102.24
99.17
93.90
86.86
78.66
69.97
61.32
53.12
45.54
38.62
32.19
25.94
19.45
12.37
4.53
-3.91
-12.52
-20.68
-27.87
-33.93
-39.18
-44.35
-50.36
-57.92
-67.23
-77.86
-88.98
-99.61
-109.07
-117.17
-124.40
-131.84
-140.99
-153.37
-169.78
-189.63
-210.38
-227.58
-235.90
-230.68
-209.65
-173.95
-128.03
-78.30
-31.26
8.25
37.95
58.11
70.70
78.35
83.47
87.75
92.03
96.47
100.73
104.28
106.60
107.32
106.39
104.14
101.28
98.72
97.37
97.83
100.12
103.61
107.22
109.68
109.94
107.46
102.34
95.21
86.96
78.49
70.41
63.00
56.20
49.77
43.43
36.95
30.10
22.76
14.86
6.50
-1.96
-9.98
-17.00
-22.74
-27.45
-31.84
-36.92
-43.53
-52.02
-62.04
-72.73
-82.99
-91.96
-99.34
-105.56
-111.65
-119.05
-129.18
-142.86
-159.74
-177.83
-193.47
-202.02
-199.04
-181.89
-150.77
-109.01
-62.19
-16.51
22.97
53.39
74.32
87.05
93.59
95.81
95.11
92.43
88.53
84.19
80.12
76.88
74.74
73.70
73.56
74.14
75.34
77.13
79.45
82.01
84.33
85.74
85.57
83.38
79.07
72.96
65.62
57.70
49.64
41.64
33.60
25.34
16.83
8.25
-0.08
-7.88
-15.18
-22.41
-30.19
-39.06
-49.16
-60.10
-71.06
-81.18
-89.95
-97.48
-104.58
-112.59
-123.03
-137.06
-154.69
-174.29
-192.35
-204.03
-204.47
-190.39
-161.46
-120.69
-73.66
-26.85
14.26
46.48
69.14
83.56
91.94
96.48
98.80
99.89
100.25
100.11
99.57
98.68
97.49
96.14
94.82
93.77
93.19
93.21
93.86
95.06
96.59
98.05
98.83
98.25
95.69
90.86
83.89
75.34
66.07
56.98
48.68
41.39
34.92
28.80
22.48
15.54
7.80
-0.58
-9.19
-17.47
-24.96
-31.49
-37.41
-43.46
-50.53
-59.31
-69.93
-81.84
-94.05
-105.46
-115.38
-123.78
-131.34
-139.34
-149.29
-162.58
-179.84
-200.30
-221.32
-238.40
-246.14
-239.74
-216.88
-178.79
-130.21
-78.01
-29.08
11.58
41.88
62.51
75.90
84.97
92.12
98.85
105.66
112.40
118.52
123.34
126.29
127.05
125.72
122.78
119.08
115.60
113.24
112.62
113.80
116.25
119.00
120.81
120.63
117.94
112.81
105.92
98.23
90.68
83.78
77.62
71.81
65.79
59.10
51.62
43.68
35.94
29.06
23.43
18.89
14.77
10.21
4.53
-2.42
-10.22
-18.04
-25.09
-31.01
-36.09
-41.16
-47.18
-54.85
-64.24
-74.73
-85.31
-95.00
-103.30
-110.38
-117.14
-124.96
-135.25
-149.00
-166.07
-184.76
-201.60
-211.92
-211.01
-195.74
-165.81
-124.14
-76.18
-28.29
14.00
47.30
70.68
85.26
93.23
96.94
98.25
98.32
97.69
96.55
94.96
93.02
90.94
88.96
87.30
86.19
85.84
86.45
88.13
90.75
93.78
96.35
97.45
96.32
92.71
86.93
79.66
71.62
63.27
54.71
45.77
36.30
26.35
16.24
6.42
-2.71
-11.05
-18.80
-26.43
-34.43
-43.07
-52.28
-61.70
-70.79
-79.13
-86.68
-93.94
-101.87
-111.67
-124.32
-139.98
-157.41
-173.78
-184.97
-186.64
-175.61
-151.02
-114.98
-72.03
-27.91
12.08
44.42
67.81
82.95
91.69
96.06
97.68
97.55
96.13
93.76
90.77
87.66
84.91
82.86
81.55
80.79
80.34
80.12
80.27
81.01
82.35
83.90
84.82
84.06
80.80
74.83
66.66
57.39
48.24
40.05
32.94
26.37
19.40
11.33
2.01
-8.00
-17.70
-26.17
-33.07
-38.82
-44.46
-51.14
-59.59
-69.76
-80.86
-91.77
-101.53
-109.83
-117.19
-124.80
-134.19
-146.70
-162.89
-181.98
-201.45
-217.26
-224.57
-219.11
-198.66
-164.12
-119.57
-71.12
-25.21
13.28
42.08
61.60
74.10
82.37
88.74
94.44
99.75
104.29
107.62
109.48
109.91
109.09
107.24
104.55
101.29
97.93
95.10
93.48
93.53
95.10
97.47
99.35
99.43
96.72
90.98
82.78
73.30
63.87
55.49
48.52
42.54
36.71
30.09
22.12
12.89
3.08
-6.31
-14.41
-20.89
-26.10
-31.00
-36.72
-44.12
-53.39
-63.98
-74.83
-84.82
-93.26
-100.18
-106.38
-113.27
-122.38
-134.83
-150.72
-168.61
-185.42
-196.84
-198.36
-186.71
-161.10
-123.80
-79.67
-34.80
5.32
37.11
59.61
74.00
82.63
87.91
91.48
94.07
95.69
96.10
95.20
93.22
90.68
88.14
86.07
84.69
84.00
83.89
84.23
84.91
85.81
86.65
86.98
86.17
83.66
79.04
72.28
63.72
53.95
43.69
33.64
24.31
15.96
8.52
1.62
-5.33
-12.92
-21.52
-31.12
-41.33
-51.50
-61.01
-69.46
-76.90
-83.81
-91.03
-99.62
-110.61
-124.53
-140.95
-157.97
-172.24
-179.49
-175.76
-158.82
-129.15
-90.13
-47.11
-5.81
29.29
55.91
74.08
85.42
92.06
95.78
97.64
98.08
97.26
95.38
92.85
90.17
87.75
85.84
84.42
83.39
82.70
82.39
82.52
83.01
83.46
83.18
81.39
77.50
71.40
63.52
54.72
45.96
37.96
30.91
24.51
18.14
11.27
3.70
-4.36
-12.47
-20.27
-27.81
-35.55
-44.12
-54.02
-65.19
-77.08
-88.74
-99.34
-108.55
-116.73
-124.97
-134.74
-147.43
-163.71
-182.93
-202.62
-218.66
-226.06
-220.35
-199.29
-163.85
-118.33
-69.14
-22.87
15.58
44.09
63.38
76.02
85.09
93.07
101.22
109.57
117.37
123.56
127.36
128.46
127.14
124.06
120.03
115.84
112.12
109.33
107.77
107.50
108.22
109.26
109.67
108.52
105.23
99.74
92.51
84.33
75.99
68.03
60.69
53.88
47.35
40.80
33.97
26.67
18.81
10.39
1.56
-7.34
-15.86
-23.53
-30.05
-35.50
-40.43
-45.72
-52.27
-60.69
-70.91
-82.27
-93.73
-104.28
-113.43
-121.41
-129.16
-138.09
-149.66
-164.78
-183.15
-202.79
-219.95
-229.77
-227.55
-210.32
-178.15
-134.44
-85.05
-36.62
5.37
37.88
60.59
75.31
84.76
91.42
96.90
101.81
106.04
109.18
110.95
111.26
110.30
108.35
105.80
103.03
100.51
98.74
98.15
98.94
100.85
103.17
104.87
104.92
102.70
98.16
91.86
84.63
77.28
70.28
63.65
57.15
50.47
43.48
36.28
29.10
22.17
15.52
9.04
2.53
-4.10
-10.76
-17.22
-23.16
-28.43
-33.11
-37.62
-42.57
-48.53
-55.75
-64.01
-72.61
-80.65
-87.44
-92.84
-97.45
-102.51
-109.51
-119.70
-133.39
-149.54
-165.50
-177.36
-180.79
-172.27
-150.37
-116.36
-74.11
-29.07
13.22
48.57
74.88
92.20
102.02
106.35
106.96
105.02
101.20
95.93
89.79
83.58
78.16
74.26
72.19
71.84
72.79
74.59
76.84
79.26
81.56
83.23
83.65
82.15
78.36
72.36
64.78
56.52
48.42
40.91
33.88
26.79
18.99
10.17
0.53
-9.19
-18.11
-25.59
-31.57
-36.70
-41.97
-48.36
-56.31
-65.57
-75.33
-84.65
-92.92
-100.16
-107.13
-115.10
-125.48
-139.18
-156.05
-174.34
-190.60
-200.24
-198.69
-182.98
-152.97
-111.70
-64.69
-18.26
22.23
53.65
75.47
89.12
96.96
101.31
103.77
105.14
105.65
105.31
104.17
102.47
100.55
98.71
97.17
96.00
95.20
94.85
95.09
96.01
97.50
99.12
100.14
99.73
97.27
92.70
86.47
79.49
72.70
66.72
61.60
56.88
51.88
46.02
39.17
31.69
24.21
17.38
11.46
6.30
1.38
-3.97
-10.27
-17.65
-25.81
-34.10
-41.78
-48.33
-53.71
-58.44
-63.42
-69.59
-77.48
-86.98
-97.39
-107.73
-117.17
-125.43
-132.88
-140.55
-149.83
-162.02
-177.76
-196.36
-215.31
-230.38
-236.46
-229.00
-205.70
-167.54
-118.77
-65.77
-15.24
27.59
59.95
81.71
94.60
101.27
104.38
105.99
107.40
109.16
111.24
113.26
114.71
115.10
114.14
111.84
108.58
105.08
102.22
100.76
101.02
102.70
104.93
106.54
106.48
104.12
99.43
92.97
85.60
78.18
71.30
65.12
59.35
53.50
47.03
39.73
31.81
23.82
16.45
10.19
5.08
0.70
-3.65
-8.65
-14.64
-21.47
-28.59
-35.26
-40.98
-45.71
-49.99
-54.72
-60.74
-68.49
-77.73
-87.68
-97.31
-105.79
-112.84
-118.86
-124.88
-132.30
-142.49
-156.22
-172.99
-190.56
-204.98
-211.33
-205.15
-184.01
-148.57
-102.62
-52.11
-3.37
38.46
70.48
92.18
104.81
110.43
111.23
109.02
105.09
100.34
95.39
90.71
86.63
83.35
80.89
79.17
78.09
77.66
78.00
79.31
81.63
84.73
87.97
90.38
90.99
89.09
84.55
77.79
69.62
60.93
52.40
44.38
36.95
29.98
23.28
16.64
9.84
2.75
-4.61
-12.01
-19.04
-25.24
-30.34
-34.49
-38.29
-42.57
-48.08
-55.19
-63.64
-72.66
-81.27
-88.70
-94.72
-99.77
-104.87
-111.37
-120.50
-132.96
-148.29
-164.51
-178.06
-184.47
-179.50
-160.67
-128.29
-85.77
-38.68
6.86
45.83
75.48
95.34
106.66
111.35
111.15
107.40
101.12
93.28
84.95
77.22
70.96
66.60
64.07
63.04
63.13
64.16
66.12
69.03
72.68
76.48
79.48
80.62
79.11
74.67
67.71
59.22
50.39
42.26
35.26
29.22
23.38
16.84
8.97
-0.31
-10.41
-20.39
-29.32
-36.72
-42.76
-48.21
-54.11
-61.30
-70.08
-80.05
-90.34
-99.93
-108.12
-114.83
-120.71
-127.04
-135.43
-147.32
-163.21
-182.05
-200.72
-214.42
-217.78
-206.55
-179.17
-137.66
-87.20
-34.56
13.77
53.30
82.11
100.64
110.77
114.84
114.99
112.94
109.94
106.88
104.22
102.04
100.12
98.07
95.63
92.82
90.07
88.05
87.44
88.61
91.35
94.81
97.69
98.59
96.44
90.95
82.64
72.69
62.44
52.97
44.66
37.15
29.59
21.12
11.33
0.51
-10.47
-20.52
-28.94
-35.73
-41.69
-48.04
-55.89
-65.69
-77.09
-89.10
-100.56
-110.63
-119.13
-126.63
-134.31
-143.73
-156.39
-173.10
-193.26
-214.38
-231.98
-240.51
-234.90
-212.30
-173.39
-122.47
-66.28
-12.12
34.19
69.46
93.34
107.61
115.11
118.65
120.40
121.69
123.01
124.35
125.43
125.88
125.40
123.83
121.18
117.79
114.23
111.33
109.88
110.31
112.49
115.60
118.35
119.42
117.90
113.59
107.02
99.12
90.86
82.96
75.75
69.18
62.99
56.87
50.51
43.73
36.52
29.15
22.03
15.66
10.30
5.85
1.80
-2.67
-8.27
-15.34
-23.65
-32.51
-41.07
-48.65
-55.06
-60.68
-66.33
-72.93
-81.11
-90.96
-101.96
-113.19
-123.67
-132.76
-140.46
-147.54
-155.38
-165.71
-179.93
-198.30
-219.15
-238.66
-251.37
-251.59
-235.29
-201.63
-153.57
-97.22
-40.05
11.08
51.61
79.86
96.71
104.74
107.08
106.63
105.53
105.03
105.60
107.06
108.87
110.34
110.87
110.14
108.29
105.82
103.53
102.22
102.37
104.02
106.64
109.31
110.96
110.75
108.25
103.52
97.03
89.43
81.36
73.31
65.60
58.37
51.64
45.28
39.02
32.51
25.42
17.60
9.20
0.67
-7.40
-14.56
-20.73
-26.29
-31.98
-38.60
-46.63
-56.09
-66.40
-76.72
-86.17
-94.22
-100.87
-106.79
-113.16
-121.49
-133.15
-148.74
-167.36
-186.20
-200.75
-205.82
-197.10
-172.82
-134.59
-87.14
-36.91
9.83
48.53
77.15
95.87
106.32
110.57
110.54
107.69
103.14
97.77
92.28
87.22
82.94
79.61
77.23
75.78
75.31
75.88
77.54
80.15
83.30
86.25
88.17
88.29
86.18
81.87
75.74
68.34
60.21
51.71
42.93
33.92
24.70
15.42
6.33
-2.35
-10.58
-18.56
-26.71
-35.48
-45.09
-55.42
-65.97
-76.06
-85.13
-93.04
-100.17
-107.47
-116.27
-127.87
-142.94
-160.91
-179.38
-194.27
-200.66
-194.21
-172.79
-137.48
-92.47
-43.89
2.00
40.50
69.33
88.55
99.72
104.98
106.21
104.80
101.68
97.55
93.00
88.58
84.69
81.61
79.48
78.39
78.41
79.62
81.98
85.25
88.88
92.03
93.71
93.15
89.94
84.27
76.81
68.44
59.91
51.60
43.43
35.03
25.97
16.09
5.66
-4.77
-14.58
-23.46
-31.62
-39.71
-48.58
-58.77
-70.30
-82.54
-94.53
-105.39
-114.80
-123.24
-131.93
-142.51
-156.46
-174.50
-195.76
-217.46
-234.99
-242.90
-236.43
-213.22
-174.40
-124.54
-70.38
-18.81
24.88
58.12
81.00
95.47
104.20
109.63
113.54
116.91
120.05
122.85
124.96
126.04
125.86
124.47
122.22
119.68
117.61
116.68
117.35
119.63
123.01
126.55
129.05
129.46
127.20
122.27
115.33
107.32
99.19
91.63
84.85
78.72
72.91
67.06
60.97
54.57
47.96
41.27
34.63
28.12
21.80
15.80
10.23
5.17
0.58
-3.81
-8.43
-13.77
-20.17
-27.71
-36.03
-44.52
-52.55
-59.77
-66.35
-72.91
-80.31
-89.25
-99.96
-111.97
-124.38
-136.14
-146.52
-155.47
-163.67
-172.53
-183.72
-198.71
-217.85
-239.71
-260.69
-275.55
-278.67
-265.77
-235.50
-190.13
-135.08
-77.40
-23.88
20.53
53.61
75.76
89.27
97.23
102.58
107.40
112.68
118.40
123.93
128.46
131.39
132.48
131.86
129.99
127.56
125.35
124.04
124.10
125.61
128.16
130.91
132.80
132.88
130.57
125.84
119.22
111.56
103.71
96.28
89.52
83.33
77.44
71.47
65.17
58.38
51.17
43.79
36.64
30.16
24.66
20.14
16.26
12.38
7.78
1.95
-5.14
-12.99
-20.82
-27.86
-33.80
-38.91
-44.01
-50.06
-57.81
-67.39
-78.28
-89.54
-100.12
-109.31
-116.97
-123.60
-130.30
-138.51
-149.66
-164.60
-182.95
-202.55
-219.38
-228.29
-224.38
-204.70
-169.53
-122.64
-70.30
-19.41
24.36
57.87
80.66
94.22
100.99
103.28
102.87
100.89
98.02
94.77
91.56
88.81
86.86
85.86
85.83
86.64
88.16
90.34
93.14
96.52
100.18
103.57
105.92
106.40
104.52
100.18
93.79
86.11
78.01
70.18
63.02
56.54
50.46
44.37
37.90
30.79
23.02
14.76
6.33
-1.85
-9.37
-15.96
-21.62
-26.65
-31.71
-37.57
-44.88
-53.86
-64.12
-74.83
-84.97
-93.82
-101.27
-107.97
-115.16
-124.38
-136.99
-153.42
-172.64
-191.79
-206.30
-211.00
-201.61
-176.38
-137.07
-88.65
-37.89
8.67
46.44
73.62
90.84
100.19
104.03
104.32
102.34
99.00
94.97
90.91
87.32
84.51
82.54
81.30
80.66
80.61
81.32
82.97
85.59
88.89
92.17
94.55
95.13
93.40
89.38
83.61
76.93
70.19
63.86
57.99
52.23
46.15
39.54
32.52
25.53
19.05
13.31
8.20
3.29
-1.92
-7.78
-14.29
-21.13
-27.82
-34.05
-39.85
-45.65
-52.14
-59.96
-69.34
-79.93
-90.95
-101.43
-110.66
-118.52
-125.52
-132.82
-141.95
-154.40
-171.05
-191.37
-212.89
-231.11
-240.42
-235.72
-214.35
-177.40
-129.65
-78.14
-30.00
9.62
38.62
57.69
69.36
76.58
81.79
86.53
91.47
96.64
101.70
106.13
109.40
111.16
111.31
110.18
108.43
106.89
106.44
107.62
110.51
114.58
118.83
122.05
123.26
122.03
118.49
113.26
107.14
100.75
94.37
87.97
81.29
74.15
66.50
58.56
50.70
43.32
36.64
30.69
25.27
20.17
15.25
10.54
6.14
2.06
-1.90
-6.18
-11.30
-17.58
-24.94
-32.90
-40.74
-47.83
-53.98
-59.48
-65.10
-71.64
-79.67
-89.17
-99.59
-110.04
-119.64
-127.95
-135.08
-141.78
-149.30
-159.08
-172.35
-189.44
-209.15
-228.27
-241.92
-244.64
-232.17
-203.05
-159.54
-107.16
-53.04
-3.93
35.64
64.03
82.22
92.73
98.48
101.92
104.71
107.67
110.92
114.21
116.94
118.53
118.57
116.97
114.19
111.03
108.52
107.52
108.44
111.05
114.52
117.73
119.53
119.16
116.40
111.63
105.63
99.33
93.53
88.51
83.98
79.12
72.90
64.59
54.08
42.07
29.88
18.91
10.24
4.18
0.24
-2.60
-5.53
-9.39
-14.47
-20.45
-26.58
-32.08
-36.49
-39.94
-43.09
-46.87
-52.04
-58.85
-66.94
-75.51
-83.68
-90.88
-97.03
-102.54
-108.26
-115.24
-124.59
-137.02
-152.31
-168.74
-182.87
-190.09
-185.94
-167.70
-135.66
-93.34
-46.53
-1.49
36.80
65.71
85.01
96.11
101.02
101.59
99.16
94.69
89.03
83.04
77.56
73.25
70.45
69.05
68.72
69.11
70.04
71.60
73.97
77.12
80.66
83.82
85.62
85.29
82.55
77.73
71.64
65.19
59.11
53.62
48.48
43.16
37.16
30.35
22.99
15.69
9.09
3.53
-1.05
-5.17
-9.50
-14.60
-20.64
-27.33
-34.04
-40.17
-45.43
-50.08
-54.83
-60.50
-67.62
-76.15
-85.48
-94.72
-103.10
-110.29
-116.62
-122.98
-130.65
-141.02
-155.01
-172.44
-191.43
-208.21
-217.74
-215.08
-197.16
-164.07
-119.41
-69.31
-20.59
21.20
53.01
74.49
87.25
93.78
96.43
96.97
96.54
95.79
95.06
94.54
94.22
93.98
93.60
92.92
91.96
91.00
90.52
91.02
92.76
95.58
98.79
101.39
102.34
100.95
97.15
91.44
84.73
77.91
71.62
65.97
60.71
55.43
49.82
43.87
37.91
32.43
27.84
24.22
21.33
18.60
15.48
11.62
7.06
2.17
-2.52
-6.59
-9.99
-13.09
-16.54
-20.96
-26.70
-33.59
-41.07
-48.33
-54.83
-60.40
-65.51
-71.00
-77.71
-86.13
-96.11
-106.94
-117.63
-127.24
-135.37
-142.26
-148.84
-156.58
-167.10
-181.53
-199.71
-219.52
-236.75
-245.83
-241.45
-220.38
-182.94
-133.26
-78.14
-25.01
20.16
54.20
76.92
90.29
97.31
100.91
103.30
105.82
109.00
112.79
116.68
119.97
122.00
122.32
120.96
118.40
115.53
113.34
112.65
113.78
116.43
119.67
122.25
122.93
120.92
116.10
109.07
100.87
92.66
85.28
79.03
73.63
68.49
63.01
56.83
50.01
42.96
36.26
30.41
25.64
21.87
18.73
15.72
12.39
8.53
4.15
-0.46
-4.91
-8.89
-12.27
-15.22
-18.18
-21.65
-25.98
-31.20
-36.92
-42.54
-47.54
-51.82
-55.82
-60.42
-66.52
-74.59
-84.43
-95.14
-105.54
-114.59
-121.87
-127.73
-133.26
-139.99
-149.51
-162.90
-180.08
-199.22
-216.55
-226.85
-224.81
-206.75
-172.17
-124.27
-69.30
-14.70
33.02
69.81
94.62
108.75
114.71
115.04
111.69
105.98
98.85
91.21
84.06
78.38
74.90
73.85
74.94
77.51
80.82
84.23
87.40
90.11
92.12
93.01
92.26
89.42
84.40
77.52
69.42
60.75
51.94
43.07
34.00
24.56
14.83
5.15
-4.04
-12.52
-20.36
-28.08
-36.30
-45.45
-55.53
-66.09
-76.35
-85.63
-93.65
-100.77
-107.97
-116.73
-128.57
-144.51
-164.27
-185.65
-204.46
-215.21
-212.63
-193.46
-157.94
-109.95
-56.08
-3.63
41.45
75.89
99.32
113.45
120.83
123.74
123.72
121.61
117.92
113.29
108.58
104.75
102.52
102.12
103.13
104.86
106.64
108.16
109.55
111.13
113.02
114.85
115.80
114.95
111.72
106.17
99.05
91.41
84.22
77.93
72.38
67.04
61.33
54.96
48.06
41.10
34.61
28.95
24.16
19.95
15.94
11.76
7.30
2.61
-2.14
-6.87
-11.66
-16.75
-22.43
-28.89
-36.11
-43.78
-51.50
-58.89
-65.83
-72.52
-79.50
-87.38
-96.65
-107.39
-119.28
-131.64
-143.65
-154.66
-164.42
-173.34
-182.58
-193.86
-208.89
-228.38
-251.08
-273.32
-289.60
-294.14
-282.68
-253.97
-210.16
-156.08
-97.93
-41.80
7.43
46.68
74.98
93.39
104.52
111.72
118.03
125.17
133.21
140.95
146.85
149.94
150.25
148.67
146.41
144.53
143.65
143.99
145.49
147.87
150.63
153.02
154.13
153.12
149.50
143.34
135.23
126.14
117.05
108.70
101.38
94.99
89.14
83.42
77.53
71.41
65.21
59.25
53.82
49.12
45.16
41.76
38.61
35.35
31.70
27.49
22.75
17.64
12.43
7.38
2.64
-1.78
-6.12
-10.75
-16.13
-22.59
-30.17
-38.55
-47.13
-55.21
-62.38
-68.68
-74.68
-81.29
-89.35
-99.31
-110.96
-123.50
-135.87
-147.11
-156.77
-165.14
-173.23
-182.69
-195.26
-212.13
-232.97
-255.35
-274.72
-285.38
-282.13
-261.93
-225.10
-175.32
-118.66
-61.91
-10.99
30.20
60.24
79.96
91.88
99.21
104.92
110.91
117.69
124.61
130.49
134.39
136.01
135.77
134.48
132.97
131.89
131.61
132.33
134.11
136.78
139.89
142.64
144.00
143.12
139.59
133.67
126.25
118.48
111.33
105.23
99.96
94.88
89.30
82.87
75.71
68.33
61.47
55.69
51.23
47.88
45.09
42.15
38.47
33.82
28.39
22.75
17.49
12.98
9.10
5.31
0.85
-4.83
-11.87
-19.83
-27.95
-35.46
-42.03
-47.82
-53.52
-59.93
-67.66
-76.82
-86.90
-97.04
-106.36
-114.26
-120.78
-126.60
-133.05
-141.68
-153.89
-170.08
-189.04
-207.57
-220.83
-223.55
-211.69
-183.99
-142.76
-93.25
-42.17
4.27
41.90
69.19
86.78
96.55
100.63
100.81
98.39
94.39
89.74
85.33
81.96
80.15
80.11
81.63
84.29
87.67
91.46
95.57
99.93
104.40
108.49
111.43
112.41
110.84
106.71
100.55
93.33
86.07
79.53
73.97
69.26
64.96
60.60
55.88
50.69
45.19
39.71
34.64
30.34
26.97
24.43
22.33
20.10
17.20
13.34
8.57
3.28
-2.02
-6.86
-11.11
-14.95
-18.85
-23.36
-28.87
-35.45
-42.81
-50.36
-57.50
-63.87
-69.54
-75.07
-81.28
-88.98
-98.50
-109.56
-121.35
-132.78
-142.98
-151.60
-159.07
-166.57
-175.77
-188.37
-205.28
-225.78
-246.96
-263.95
-270.92
-262.87
-237.35
-195.64
-142.50
-84.89
-29.98
16.68
52.15
76.21
90.62
98.16
101.76
103.85
106.10
109.24
113.26
117.57
121.41
124.10
125.32
125.16
124.16
123.07
122.63
123.36
125.39
128.37
131.50
133.77
134.22
132.27
127.85
121.45
113.89
106.03
98.53
91.70
85.50
79.68
73.96
68.17
62.29
56.42
50.76
45.48
40.68
36.43
32.70
29.41
26.40
23.51
20.50
17.19
13.44
9.24
4.71
0.09
-4.33
-8.41
-12.22
-16.09
-20.50
-25.87
-32.30
-39.54
-46.99
-54.01
-60.20
-65.63
-70.87
-76.73
-83.94
-92.76
-102.88
-113.50
-123.65
-132.60
-140.19
-146.91
-153.89
-162.62
-174.54
-190.40
-209.49
-229.13
-244.77
-250.90
-242.65
-217.67
-177.18
-125.94
-70.83
-18.86
24.67
57.19
78.80
91.36
97.44
99.47
99.33
98.31
97.26
96.62
96.59
97.08
97.86
98.62
99.20
99.64
100.27
101.53
103.85
107.33
111.63
115.93
119.10
120.14
118.41
113.95
107.44
99.95
92.62
86.23
80.99
76.57
72.29
67.47
61.72
55.14
48.23
41.71
36.20
31.99
28.91
26.46
24.05
21.21
17.80
14.02
10.20
6.65
3.45
0.34
-3.15
-7.54
-13.18
-20.00
-27.54
-35.10
-42.10
-48.34
-54.21
-60.46
-67.84
-76.71
-86.73
-97.00
-106.32
-113.79
-119.10
-122.77
-126.06
-130.65
-138.29
-150.20
-166.46
-185.34
-203.19
-214.90
-215.27
-200.61
-170.32
-127.30
-77.27
-27.02
17.52
52.59
77.06
91.84
98.96
100.61
98.70
94.68
89.63
84.44
79.82
76.35
74.38
73.98
75.03
77.22
80.27
83.99
88.28
93.00
97.84
102.12
104.99
105.63
103.59
99.04
92.70
85.62
78.79
72.88
67.99
63.80
59.69
55.13
49.81
43.86
37.74
32.09
27.42
23.89
21.23
18.83
16.09
12.62
8.46
3.98
-0.35
-4.22
-7.72
-11.24
-15.34
-20.46
-26.74
-33.93
-41.50
-48.87
-55.66
-61.85
-67.88
-74.45
-82.26
-91.69
-102.53
-114.08
-125.32
-135.35
-143.76
-150.88
-157.85
-166.33
-178.10
-194.29
-214.47
-236.16
-254.74
-264.48
-260.10
-238.58
-200.36
-149.50
-92.57
-36.88
11.43
48.66
73.91
88.64
95.74
98.46
99.61
101.01
103.42
106.71
110.27
113.39
115.61
116.74
116.87
116.34
115.62
115.26
115.78
117.49
120.28
123.58
126.46
127.86
126.98
123.56
117.93
110.89
103.44
96.41
90.25
84.93
80.06
75.15
69.80
63.92
57.77
51.82
46.56
42.28
38.91
36.06
33.24
29.96
26.00
21.45
16.66
12.06
7.96
4.36
0.92
-2.96
-7.86
-14.05
-21.32
-29.02
-36.34
-42.67
-47.93
-52.67
-57.82
-64.32
-72.66
-82.70
-93.64
-104.38
-113.93
-121.80
-128.22
-134.21
-141.29
-151.12
-164.87
-182.44
-201.86
-219.18
-229.13
-226.54
-208.19
-174.06
-127.75
-75.45
-24.12
20.39
54.68
77.99
91.55
97.60
98.47
96.14
92.12
87.58
83.36
80.03
77.91
77.08
77.45
78.85
81.07
83.98
87.43
91.30
95.41
99.45
102.92
105.21
105.66
103.78
99.35
92.59
84.10
74.72
65.38
56.76
49.22
42.66
36.57
30.24
23.02
14.61
5.26
-4.31
-13.21
-20.71
-26.65
-31.53
-36.35
-42.23
-49.96
-59.67
-70.77
-82.24
-93.03
-102.49
-110.70
-118.46
-127.19
-138.48
-153.59
-172.77
-194.65
-215.90
-231.61
-236.42
-226.18
-199.52
-158.61
-108.72
-56.69
-8.95
30.11
58.79
77.80
89.30
95.84
99.58
101.98
103.82
105.35
106.55
107.33
107.68
107.77
107.89
108.33
109.34
111.05
113.45
116.47
119.91
123.37
126.19
127.56
126.70
123.24
117.35
109.80
101.68
94.03
87.42
81.89
77.00
72.15
66.91
61.17
55.16
49.32
44.11
39.85
36.62
34.21
32.17
29.95
27.05
23.18
18.37
12.94
7.33
2.00
-2.85
-7.30
-11.71
-16.60
-22.37
-29.24
-37.07
-45.41
-53.68
-61.40
-68.41
-74.98
-81.80
-89.66
-99.19
-110.41
-122.83
-135.45
-147.28
-157.69
-166.75
-175.36
-185.06
-197.67
-214.53
-235.62
-258.90
-280.20
-293.95
-294.74
-278.99
-246.24
-199.39
-144.02
-86.83
-34.05
9.85
42.84
65.30
79.52
88.81
96.46
104.74
114.47
125.01
134.90
142.67
147.50
149.46
149.26
147.93
146.38
145.31
145.14
146.03
147.91
150.33
152.57
153.65
152.71
149.26
143.39
135.79
127.45
119.39
112.21
106.02
100.51
95.14
89.45
83.27
76.78
70.43
64.72
59.98
56.21
53.12
50.26
47.19
43.71
39.86
35.86
31.94
28.19
24.52
20.66
16.34
11.48
6.24
0.99
-3.90
-8.26
-12.31
-16.54
-21.52
-27.56
-34.55
-41.94
-48.99
-55.08
-60.08
-64.42
-68.97
-74.71
-82.31
-91.85
-102.72
-113.90
-124.27
-133.13
-140.48
-147.13
-154.53
-164.42
-178.27
-196.50
-217.74
-238.49
-253.46
-256.91
-244.42
-214.66
-170.16
-116.74
-61.80
-12.16
27.69
56.18
74.28
84.42
89.36
91.46
92.38
93.12
94.17
95.68
97.54
99.51
101.31
102.71
103.70
104.48
105.48
107.22
110.02
113.86
118.18
121.95
124.00
123.42
119.87
113.80
106.21
98.26
90.87
84.34
78.38
72.31
65.48
57.62
48.98
40.30
32.45
26.05
21.21
17.37
13.60
8.98
2.94
-4.42
-12.48
-20.40
-27.54
-33.85
-39.87
-46.57
-54.84
-65.11
-77.05
-89.68
-101.80
-112.45
-121.42
-129.38
-137.78
-148.38
-162.69
-181.16
-202.55
-223.57
-239.29
-244.23
-234.08
-207.30
-165.98
-115.44
-62.67
-14.29
25.16
54.01
73.11
84.83
91.90
96.55
100.15
103.29
105.95
107.92
109.00
109.22
108.85
108.30
107.97
108.19
109.14
110.90
113.46
116.61
119.92
122.65
123.96
123.11
119.78
114.20
107.14
99.54
92.22
85.62
79.66
74.01
68.27
62.20
55.84
49.35
42.96
36.77
30.82
25.07
19.55
14.38
9.64
5.23
0.83
-4.09
-10.00
-17.07
-25.09
-33.43
-41.47
-48.82
-55.63
-62.51
-70.25
-79.51
-90.44
-102.66
-115.39
-127.72
-138.91
-148.76
-157.65
-166.62
-177.21
-191.03
-209.04
-230.70
-253.41
-272.52
-282.30
-277.59
-255.64
-217.21
-166.70
-110.91
-57.10
-11.01
24.33
48.82
64.58
74.78
82.51
89.97
98.15
106.94
115.51
122.82
128.08
131.00
131.84
131.21
129.88
128.62
128.07
128.67
130.65
133.82
137.55
140.80
142.36
141.31
137.38
131.02
123.28
115.32
108.02
101.67
96.06
90.71
85.19
79.33
73.23
67.15
61.39
56.14
51.53
47.53
44.08
40.97
37.94
34.64
30.77
26.19
20.99
15.50
10.16
5.34
1.18
-2.52
-6.32
-10.87
-16.63
-23.71
-31.66
-39.75
-47.16
-53.48
-58.84
-63.96
-69.79
-77.10
-86.11
-96.39
-107.01
-116.95
-125.53
-132.69
-139.08
-145.96
-154.90
-167.35
-183.97
-203.90
-224.27
-240.36
-246.59
-238.28
-213.35
-173.42
-123.52
-70.58
-21.39
19.26
49.32
69.33
81.29
87.69
90.62
91.56
91.42
90.80
90.13
89.80
90.08
91.14
92.89
95.13
97.60
100.23
103.08
106.39
110.26
114.45
118.25
120.67
120.76
118.04
112.65
105.41
97.44
89.83
83.21
77.62
72.51
67.12
60.81
53.46
45.49
37.71
30.94
25.54
21.30
17.47
13.15
7.68
0.90
-6.79
-14.74
-22.24
-28.93
-34.87
-40.59
-46.83
-54.35
-63.53
-74.25
-85.82
-97.24
-107.62
-116.56
-124.44
-132.38
-142.02
-154.91
-171.89
-192.25
-213.27
-230.45
-238.35
-232.26
-209.92
-172.56
-124.78
-73.22
-24.58
16.19
46.82
67.60
80.48
87.95
92.21
94.81
96.64
98.13
99.44
100.58
101.54
102.25
102.69
102.90
103.09
103.60
104.83
107.11
110.47
114.43
118.16
120.59
120.85
118.48
113.64
107.04
99.64
92.41
85.94
80.36
75.36
70.42
65.08
59.16
52.87
46.71
41.21
36.67
33.02
29.81
26.43
22.39
17.54
12.16
6.77
1.89
-2.36
-6.28
-10.53
-15.83
-22.60
-30.76
-39.69
-48.51
-56.44
-63.18
-69.03
-74.88
-81.85
-90.80
-101.96
-114.77
-128.08
-140.63
-151.59
-160.97
-169.72
-179.49
-192.06
-208.64
-228.98
-250.89
-270.13
-281.26
-278.96
-259.86
-223.87
-174.58
-118.41
-62.76
-14.00
24.07
50.68
67.55
77.71
84.39
90.11
96.33
103.45
111.10
118.44
124.57
128.81
130.90
131.07
130.00
128.54
127.58
127.71
129.16
131.68
134.60
136.97
137.83
136.46
132.66
126.81
119.69
112.27
105.29
99.09
93.52
88.15
82.50
76.32
69.69
62.99
56.72
51.29
46.88
43.33
40.29
37.35
34.17
30.57
26.52
22.06
17.26
12.25
7.18
2.27
-2.25
-6.36
-10.25
-14.41
-19.43
-25.72
-33.25
-41.47
-49.51
-56.56
-62.27
-66.96
-71.50
-76.97
-84.12
-93.08
-103.29
-113.80
-123.59
-132.05
-139.21
-145.78
-153.02
-162.50
-175.58
-192.74
-212.84
-232.69
-247.31
-251.11
-239.62
-211.23
-168.11
-115.78
-61.51
-12.19
27.45
55.66
73.35
83.02
87.54
89.31
89.91
90.17
90.47
90.96
91.69
92.64
93.71
94.75
95.68
96.57
97.69
99.51
102.41
106.46
111.21
115.74
118.84
119.53
117.31
112.39
105.60
98.05
90.79
84.42
79.01
74.15
69.19
63.58
57.03
49.67
41.96
34.52
27.92
22.49
18.13
14.36
10.42
5.53
-0.78
-8.52
-17.11
-25.66
-33.33
-39.75
-45.19
-50.55
-56.92
-65.17
-75.50
-87.34
-99.61
-111.10
-121.00
-129.27
-136.69
-144.77
-155.30
-169.72
-188.39
-209.91
-230.82
-245.99
-249.89
-238.21
-209.61
-166.39
-114.07
-59.79
-10.23
30.01
59.13
77.91
88.64
94.11
96.74
98.27
99.70
101.36
103.26
105.19
106.90
108.23
109.10
109.65
110.13
110.94
112.52
115.14
118.72
122.69
126.06
127.71
126.83
123.19
117.24
109.90
102.20
94.94
88.43
82.56
76.91
71.02
64.66
57.92
51.22
45.05
39.78
35.45
31.75
28.14
24.13
19.47
14.28
8.93
3.88
-0.60
-4.65
-8.73
-13.48
-19.41
-26.71
-35.04
-43.71
-51.97
-59.37
-66.03
-72.62
-80.06
-89.05
-99.78
-111.75
-124.03
-135.55
-145.62
-154.23
-162.12
-170.71
-181.76
-196.78
-216.15
-238.42
-259.88
-275.07
-278.14
-264.72
-233.59
-187.33
-131.83
-74.47
-22.17
20.37
51.31
71.48
83.39
90.24
94.86
99.27
104.42
110.30
116.29
121.55
125.39
127.48
127.93
127.21
126.03
125.12
125.08
126.26
128.58
131.56
134.41
136.16
136.00
133.45
128.54
121.85
114.29
106.82
100.10
94.33
89.18
84.05
78.42
72.08
65.26
58.50
52.43
47.46
43.62
40.57
37.69
34.39
30.30
25.43
20.17
15.09
10.66
6.99
3.77
0.35
-3.98
-9.64
-16.55
-24.17
-31.69
-38.42
-44.10
-49.06
-54.14
-60.25
-68.00
-77.39
-87.77
-98.13
-107.50
-115.39
-121.98
-128.11
-135.11
-144.45
-157.31
-173.96
-193.11
-211.54
-224.43
-226.47
-213.60
-184.58
-141.87
-90.98
-38.90
7.97
45.46
72.16
88.95
97.92
101.41
101.30
98.97
95.42
91.45
87.82
85.09
83.60
83.36
84.11
85.49
87.21
89.23
91.71
94.80
98.45
102.15
105.02
106.05
104.51
100.27
93.87
86.35
78.80
71.97
66.02
60.52
54.81
48.32
40.95
33.17
25.75
19.45
14.59
10.91
7.65
3.90
-0.99
-7.15
-14.14
-21.22
-27.69
-33.25
-38.17
-43.19
-49.23
-57.00
-66.67
-77.77
-89.34
-100.35
-110.03
-118.28
-125.66
-133.44
-143.24
-156.53
-173.94
-194.45
-214.99
-230.67
-235.96
-226.45
-200.58
-160.50
-111.62
-60.94
-14.94
22.08
48.72
66.00
76.37
82.52
86.60
90.00
93.40
96.93
100.41
103.52
105.87
107.22
107.59
107.29
106.85
106.94
108.07
110.46
113.89
117.72
121.04
122.86
122.39
119.31
113.79
106.49
98.34
90.21
82.69
75.91
69.65
63.47
57.05
50.32
43.57
37.24
31.79
27.39
23.85
20.69
17.33
13.36
8.71
3.69
-1.20
-5.59
-9.41
-13.04
-17.14
-22.32
-28.89
-36.64
-44.87
-52.73
-59.60
-65.40
-70.71
-76.51
-83.81
-93.09
-104.16
-116.11
-127.76
-138.11
-146.76
-154.20
-161.69
-171.05
-183.99
-201.38
-222.45
-244.23
-261.82
-269.40
-261.97
-237.09
-196.01
-143.56
-86.83
-33.20
11.71
45.10
67.15
80.18
87.47
92.12
96.40
101.39
107.16
113.13
118.42
122.29
124.33
124.53
123.26
121.17
119.03
117.57
117.35
118.59
121.05
123.95
126.22
126.75
124.76
120.09
113.25
105.24
97.14
89.77
83.45
77.96
72.83
67.58
61.99
56.18
50.50
45.28
40.65
36.50
32.55
28.60
24.61
20.69
16.94
13.31
9.48
4.99
-0.54
-7.15
-14.44
-21.71
-28.26
-33.80
-38.59
-43.44
-49.28
-56.80
-66.04
-76.38
-86.75
-96.14
-103.99
-110.42
-116.24
-122.71
-131.26
-143.02
-158.34
-176.27
-194.12
-207.65
-211.95
-202.92
-178.79
-141.08
-94.45
-45.35
-0.10
36.81
63.55
80.79
90.60
95.35
96.88
96.30
94.20
91.10
87.64
84.60
82.74
82.43
83.60
85.80
88.46
91.20
93.93
96.76
99.73
102.58
104.68
105.23
103.59
99.61
93.69
86.72
79.65
73.18
67.49
62.25
56.86
50.75
43.71
36.03
28.37
21.52
16.00
11.82
8.46
5.02
0.62
-5.30
-12.74
-21.11
-29.46
-36.94
-43.10
-48.15
-52.96
-58.66
-66.20
-75.86
-87.11
-98.81
-109.72
-118.96
-126.53
-133.31
-140.88
-151.01
-164.97
-182.79
-202.67
-220.88
-232.31
-231.88
-216.14
-184.72
-140.74
-90.12
-39.86
3.98
37.72
60.60
74.28
81.72
85.98
89.33
92.93
96.93
100.94
104.38
106.88
108.32
108.83
108.68
108.21
107.79
107.85
108.73
110.57
113.19
115.97
117.99
118.34
116.41
112.10
105.87
98.59
91.18
84.37
78.42
73.20
68.27
63.22
57.83
52.17
46.59
41.48
37.16
33.73
31.08
28.94
26.96
24.83
22.26
19.14
15.41
11.13
6.46
1.62
-3.15
-7.57
-11.48
-14.90
-18.09
-21.60
-26.05
-31.87
-39.03
-47.01
-54.94
-62.00
-67.81
-72.65
-77.37
-83.02
-90.39
-99.64
-110.25
-121.22
-131.52
-140.48
-148.10
-155.09
-162.83
-173.00
-187.05
-205.35
-226.49
-246.90
-261.25
-263.81
-250.23
-219.27
-173.58
-119.07
-63.27
-13.08
26.92
55.19
72.92
82.92
88.45
92.27
96.21
101.07
106.83
112.91
118.47
122.77
125.32
126.00
125.14
123.43
121.69
120.73
121.05
122.69
125.13
127.46
128.58
127.59
124.06
118.20
110.77
102.77
95.11
88.35
82.52
77.26
72.03
66.38
60.21
53.77
47.61
42.28
38.12
35.08
32.74
30.46
27.64
23.96
19.48
14.58
9.74
5.24
1.05
-3.20
-8.04
-13.84
-20.61
-27.93
-35.12
-41.51
-46.79
-51.19
-55.42
-60.39
-66.83
-74.93
-84.26
-93.89
-102.78
-110.27
-116.33
-121.76
-127.97
-136.61
-148.97
-165.21
-183.76
-201.14
-212.46
-212.70
-198.26
-168.43
-125.95
-76.36
-26.42
17.76
52.27
75.87
89.64
95.93
97.33
95.98
93.33
90.26
87.31
84.87
83.21
82.50
82.77
83.87
85.61
87.88
90.57
93.67
97.08
100.56
103.62
105.56
105.70
103.58
99.19
93.00
85.86
78.70
72.19
66.53
61.49
56.61
51.46
45.96
40.37
35.20
30.93
27.71
25.33
23.22
20.75
17.44
13.16
8.17
3.02
-1.84
-6.15
-10.03
-13.96
-18.44
-23.83
-30.09
-36.83
-43.53
-49.85
-55.85
-61.97
-68.90
-77.21
-87.04
-98.03
-109.42
-120.28
-129.85
-137.91
-144.84
-151.73
-160.16
-171.78
-187.63
-207.25
-228.13
-245.70
-254.21
-248.45
-225.55
-186.31
-135.19
-79.12
-25.45
20.05
54.38
77.37
90.96
98.04
101.47
103.48
105.48
108.06
111.17
114.34
117.01
118.74
119.40
119.15
118.41
117.65
117.35
117.88
119.43
121.81
124.47
126.49
126.92
125.08
120.83
114.65
107.40
99.99
93.05
86.77
80.95
75.22
69.21
62.77
56.01
49.28
43.05
37.76
33.60
30.41
27.70
24.79
21.08
16.26
10.50
4.32
-1.61
-6.72
-10.87
-14.42
-18.06
-22.54
-28.28
-35.22
-42.83
-50.38
-57.34
-63.58
-69.46
-75.67
-82.91
-91.65
-101.80
-112.82
-123.83
-134.00
-142.83
-150.53
-158.03
-166.82
-178.59
-194.46
-214.21
-235.69
-254.71
-265.82
-263.74
-245.01
-209.41
-160.28
-103.74
-47.02
3.48
43.58
71.95
89.65
99.23
103.74
105.82
107.32
109.22
111.67
114.35
116.76
118.46
119.23
119.11
118.40
117.60
117.22
117.71
119.28
121.79
124.64
126.92
127.64
125.99
121.78
115.41
107.84
100.17
93.23
87.28
82.06
76.95
71.35
65.00
58.06
51.06
44.64
39.27
35.03
31.60
28.41
24.90
20.77
16.11
11.32
6.85
2.92
-0.58
-4.11
-8.22
-13.30
-19.31
-25.84
-32.26
-38.02
-42.99
-47.59
-52.62
-58.98
-67.15
-76.99
-87.67
-98.03
-107.04
-114.25
-119.96
-125.20
-131.41
-140.11
-152.47
-168.69
-187.45
-205.57
-218.27
-220.31
-207.62
-178.93
-136.56
-85.96
-34.08
12.67
49.99
76.28
92.28
99.95
101.53
98.93
93.64
86.92
79.95
73.82
69.42
67.17
67.03
68.56
71.19
74.45
78.13
82.18
86.58
91.01
94.78
96.86
96.27
92.46
85.63
76.72
67.06
57.87
49.78
42.61
35.54
27.62
18.28
7.71
-3.29
-13.65
-22.61
-30.06
-36.58
-43.21
-50.96
-60.36
-71.32
-83.17
-94.90
-105.57
-114.79
-122.90
-131.10
-141.18
-154.86
-172.94
-194.40
-216.01
-232.69
-238.81
-229.89
-204.24
-163.74
-113.43
-60.08
-10.31
31.06
61.84
82.44
95.00
102.32
106.82
110.07
112.66
114.62
115.75
116.06
115.89
115.73
116.01
116.87
118.21
119.80
121.52
123.49
125.92
128.88
132.05
134.64
135.56
133.85
129.02
121.37
111.90
102.04
93.13
86.03
80.91
77.36
74.66
71.89
68.06
62.13
53.25
41.09
26.21
10.10
-5.27
-18.23
-28.10
-35.45
-41.69
-48.28
-56.06
-65.03
-74.70
-84.63
-94.78
-105.47
-116.90
-128.80
-140.31
-150.25
-157.62
-162.08
-164.27
-165.80
-169.00
-176.19
-188.87
-206.64
-226.65
-243.86
-252.29
-246.74
-224.46
-186.00
-135.03
-77.22
-18.87
34.44
78.67
111.68
133.28
144.88
148.95
148.15
144.68
139.93
134.62
129.50
125.84
125.54
130.51
141.87
159.24
180.67
203.13
223.47
239.14
248.75
252.00
249.35
241.68
230.11
215.86
200.26
184.77
170.71
159.03
150.01
143.18
137.44
131.38
123.78
113.92
101.82
88.14
73.85
59.93
47.09
35.69
25.78
17.28
10.13
4.30
-0.22
-3.55
-5.94
-7.72
-9.09
-9.97
-9.95
-8.51
-5.36
-0.75
4.35
8.47
10.08
8.01
1.88
-7.74
-19.53
-31.85
-43.21
-52.81
-60.76
-67.94
-75.50
-84.24
-94.22
-104.78
-114.97
-124.16
-132.55
-141.15
-151.44
-164.64
-181.20
-200.18
-219.12
-234.13
-240.48
-233.85
-211.67
-174.39
-125.74
-71.95
-19.92
24.78
59.27
83.55
99.63
110.14
117.23
122.14
125.47
127.59
128.91
129.75
130.05
129.32
126.73
121.61
113.92
104.37
94.26
84.99
77.42
71.60
66.84
62.09
56.59
50.23
43.69
38.01
34.11
32.26
31.94
32.22
32.23
31.64
30.90
30.91
32.78
37.32
44.86
55.05
66.77
78.09
86.51
89.46
85.24
73.67
56.28
35.68
14.44
-5.73
-24.38
-41.60
-57.19
-70.00
-78.03
-79.39
-73.27
-60.73
-44.51
-28.22
-15.23
-7.82
-6.75
-11.45
-20.50
-32.13
-44.79
-57.21
-68.54
-78.11
-85.33
-89.80
-91.39
-90.48
-87.98
-85.15
-83.12
-82.48
-82.84
-82.91
-80.83
-74.79
-63.85
-48.30
-29.78
-10.70
6.59
20.68
31.55
40.36
48.70
57.76
67.68
77.58
86.07
91.94
94.64
94.42
91.95
87.98
83.00
77.23
70.83
64.10
57.58
52.04
48.14
46.20
46.01
46.85
47.10
45.49
41.85
36.98
32.09
28.10
25.42
23.95
23.23
22.18
20.18
17.32
14.12
10.73
6.56
0.48
-8.52
-20.89
-37.94
-59.70
-84.57
-110.03
-134.07
-155.91
-175.63
-193.51
-209.66
-228.39
-251.85
-278.23
-302.68
-321.12
-332.22
-337.03
-337.38
-334.73
-338.96
-355.06
-379.84
-404.11
-420.27
-426.41
-424.91
-419.39
-412.36
-419.66
-449.52
-497.53
-549.61
-593.40
-624.51
-644.83
-658.61
-670.21
-702.85
-770.53
-870.18
-983.66
-1092.06
-1184.72
-1259.02
-1317.14
-1239.66
-977.72
-578.92
-155.98
201.61
464.49
643.44
761.77
840.96
896.52
913.51
891.05
839.92
781.28
733.21
702.92
688.89
686.20
690.36
683.73
655.92
608.87
555.22
506.76
468.12
438.35
414.79
395.41
369.72
332.11
283.97
232.86
185.76
145.39
111.37
82.48
57.85
32.46
3.70
-27.61
-57.45
-81.94
-99.32
-109.74
-114.26
-114.25
-112.84
-112.25
-113.33
-115.44
-117.72
-119.74
-121.46
-122.95
-124.19
-125.07
-125.32
-124.69
-122.87
-119.56
-114.50
-107.58
-98.84
-88.48
-76.89
-64.63
-52.36
-40.81
-30.73
-22.74
-17.23
-14.22
-13.36
-13.99
-15.31
-16.63
-17.53
-17.90
-17.79
-17.22
-15.90
-13.19
-8.29
-0.57
10.03
22.82
36.49
49.56
60.99
70.63
79.36
88.62
99.79
113.41
128.87
144.59
158.86
170.64
180.13
188.69
198.22
210.42
226.43
247.05
272.68
302.83
335.06
364.53
384.71
389.77
377.29
349.73
313.50
275.89
241.66
211.41
182.46
151.71
118.31
84.56
54.46
31.24
15.51
5.17
-3.08
-11.83
-21.78
-31.99
-40.91
-47.67
-52.96
-58.88
-68.05
-82.21
-101.09
-122.02
-140.56
-151.96
-152.81
-142.01
-120.81
-92.00
-58.70
-23.58
11.44
44.87
75.31
101.29
121.45
135.06
142.31
144.32
142.78
139.38
135.32
131.08
126.50
121.10
114.57
107.02
99.06
91.62
85.54
81.25
78.64
77.05
75.59
73.44
70.10
65.50
59.89
53.69
47.24
40.64
33.77
26.31
18.00
8.71
-1.48
-12.25
-23.21
-33.97
-44.31
-54.24
-64.09
-74.46
-86.10
-99.58
-114.81
-130.65
-144.72
-153.85
-154.83
-145.51
-125.55
-96.56
-61.61
-24.30
12.13
45.33
73.91
97.18
114.93
127.19
134.30
136.90
135.85
132.08
126.38
119.34
111.40
102.92
94.35
86.20
78.99
73.09
68.53
64.99
61.93
58.76
55.11
50.91
46.37
41.75
37.22
32.65
27.69
21.91
15.03
7.05
-1.72
-10.68
-19.07
-26.33
-32.33
-37.68
-43.74
-52.30
-64.88
-81.90
-102.09
-122.46
-139.00
-147.79
-146.34
-134.25
-113.40
-87.25
-59.77
-34.44
-13.37
2.93
15.46
26.25
37.64
51.56
68.97
89.42
111.21
131.85
148.89
160.67
166.75
167.87
165.41
160.71
154.52
146.84
137.10
124.66
109.17
90.76
69.99
47.65
24.64
1.92
-19.46
-38.29
-53.44
-64.02
-69.65
-70.63
-67.81
-62.35
-55.35
-47.60
-39.59
-31.71
-24.49
-18.78
-15.51
-15.26
-17.77
-21.73
-25.12
-25.67
-21.71
-12.53
1.50
19.19
38.95
59.01
77.61
93.01
103.72
108.72
107.73
101.33
90.74
77.49
63.05
48.56
34.93
22.94
13.37
6.84
3.67
3.56
5.47
7.72
8.34
5.54
-1.72
-13.30
-27.78
-42.79
-55.74
-64.68
-68.79
-68.40
-64.47
-57.90
-49.22
-38.86
-27.63
-17.13
-9.58
-6.98
-10.26
-18.68
-30.09
-41.66
-51.01
-56.93
-59.71
-60.84
-62.38
-66.04
-72.40
-80.56
-88.47
-93.71
-94.52
-90.41
-82.04
-70.66
-57.41
-43.11
-28.60
-15.24
-5.07
-0.16
-1.57
-8.45
-18.06
-26.75
-31.55
-31.50
-27.88
-23.53
-21.27
-22.68
-27.44
-33.67
-38.91
-41.21
-39.77
-35.02
-28.11
-20.29
-12.39
-4.72
2.89
10.74
19.00
27.39
35.24
41.69
46.17
48.64
49.66
50.06
50.51
51.19
51.83
52.08
52.03
52.35
54.15
58.36
65.13
73.66
82.49
90.14
95.75
99.13
100.66
100.66
99.18
95.94
90.61
83.17
74.07
64.04
53.78
43.68
33.83
24.15
14.59
5.30
-3.53
-11.66
-18.83
-24.80
-29.39
-32.77
-35.74
-39.76
-46.64
-57.82
-73.48
-92.26
-111.43
-127.84
-138.95
-143.66
-142.66
-138.29
-133.77
-132.33
-136.11
-145.48
-158.88
-173.36
-185.76
-193.87
-197.06
-196.15
-192.42
-186.65
-178.57
-167.18
-151.54
-131.59
-108.41
-83.84
-59.78
-37.69
-18.35
-2.18
10.55
19.61
24.93
26.93
26.55
25.07
23.62
22.70
22.18
21.56
20.42
18.81
17.18
16.07
15.75
16.09
16.74
17.46
18.35
19.68
21.61
23.85
25.76
26.62
26.03
24.15
21.49
18.63
15.75
12.56
8.54
3.35
-2.71
-8.62
-12.90
-14.19
-11.86
-6.31
1.10
8.59
14.54
17.94
18.52
16.65
12.96
8.25
3.31
-1.18
-4.90
-8.07
-11.51
-16.24
-22.90
-31.27
-40.09
-47.48
-51.68
-51.74
-47.85
-41.21
-33.47
-26.17
-20.39
-16.59
-14.58
-13.79
-13.32
-12.20
-9.60
-5.13
1.04
8.04
14.51
19.01
20.52
18.83
14.63
9.15
3.55
-1.62
-6.61
-12.16
-19.04
-27.57
-37.41
-47.66
-57.16
-64.83
-69.84
-71.84
-70.87
-67.32
-61.66
-54.31
-45.48
-35.34
-24.12
-12.26
-0.32
11.24
22.39
33.50
45.04
57.26
69.85
82.24
94.05
105.46
117.13
129.43
141.73
151.93
157.04
154.23
142.07
121.09
93.54
62.47
30.79
0.78
-26.00
-48.45
-65.86
-77.98
-85.25
-88.78
-89.97
-89.86
-88.71
-86.04
-81.19
-74.13
-65.99
-58.91
-55.35
-57.04
-64.22
-75.33
-87.68
-98.22
-104.58
-105.50
-100.93
-91.55
-78.36
-62.40
-44.78
-26.77
-9.78
4.81
15.83
22.56
24.82
23.05
18.16
11.44
4.24
-2.32
-7.60
-11.52
-14.38
-16.51
-17.93
-18.35
-17.36
-14.87
-11.44
-8.27
-6.75
-7.88
-11.90
-18.20
-25.63
-33.09
-39.91
-46.07
-52.08
-58.63
-66.26
-75.17
-85.22
-95.97
-106.77
-116.81
-125.10
-130.58
-132.31
-129.66
-122.67
-112.13
-99.70
-87.76
-78.97
-75.55
-78.62
-87.71
-100.80
-115.00
-127.48
-136.14
-139.76
-137.60
-128.91
-112.81
-89.10
-59.13
-26.33
4.73
30.10
48.16
60.14
68.98
77.20
85.31
91.62
93.64
90.02
81.66
71.30
61.97
55.23
50.60
46.16
40.04
31.53
21.34
10.94
1.43
-7.00
-15.16
-24.38
-35.53
-48.38
-61.37
-71.99
-77.52
-75.91
-66.41
-49.74
-27.78
-2.90
22.64
47.06
69.17
88.11
103.15
113.61
118.94
118.99
114.19
105.52
94.43
82.45
71.04
61.30
53.91
49.07
46.42
45.18
44.20
42.32
38.66
32.86
25.16
16.19
6.74
-2.59
-11.54
-20.20
-28.92
-38.15
-48.35
-59.82
-72.43
-85.41
-97.19
-105.59
-108.33
-103.72
-91.23
-71.80
-47.60
-21.46
3.88
26.34
44.76
58.79
68.62
74.67
77.42
77.38
75.19
71.61
67.47
63.48
60.07
57.35
55.27
53.73
52.76
52.41
52.51
52.58
51.77
49.14
44.09
36.58
27.22
16.97
6.74
-3.00
-12.35
-21.94
-32.63
-45.21
-59.98
-76.44
-93.12
-107.70
-117.38
-119.62
-112.87
-97.09
-73.86
-45.86
-16.15
12.55
38.28
59.93
77.00
89.35
97.10
100.62
100.68
98.38
94.98
91.60
88.88
87.02
85.77
84.86
84.16
83.79
83.99
84.77
85.67
85.80
84.07
79.71
72.57
63.22
52.76
42.30
32.57
23.71
15.23
6.21
-4.38
-17.30
-32.61
-49.29
-65.12
-76.99
-81.62
-76.60
-61.27
-37.04
-6.99
25.08
55.74
82.66
104.68
121.56
133.40
140.35
142.57
140.59
135.51
129.04
123.16
119.67
119.62
123.09
129.22
136.50
143.18
147.70
148.88
145.99
138.66
126.88
110.91
91.43
69.55
46.82
24.94
5.41
-10.92
-24.07
-34.89
-44.63
-54.48
-65.14
-76.62
-88.29
-99.03
-107.38
-111.73
-110.53
-102.72
-88.18
-68.02
-44.54
-20.64
1.03
18.86
32.60
43.05
51.35
58.22
63.70
67.28
68.49
67.37
64.65
61.46
58.84
57.28
56.56
55.93
54.57
52.00
48.30
44.05
40.02
36.77
34.35
32.32
29.96
26.72
22.48
17.62
12.78
8.47
4.73
1.04
-3.45
-9.63
-17.98
-28.46
-40.50
-53.01
-64.57
-73.50
-78.19
-77.42
-70.88
-59.32
-44.53
-28.78
-14.15
-1.88
7.81
15.45
21.68
26.74
30.28
31.54
29.96
25.52
18.99
11.70
5.18
0.73
-0.85
0.63
4.74
10.49
16.43
20.83
22.10
19.22
12.20
2.20
-8.75
-18.32
-24.61
-26.63
-24.51
-19.31
-12.71
-6.56
-2.55
-1.84
-4.93
-11.58
-21.00
-32.09
-43.74
-54.88
-64.50
-71.53
-74.82
-73.30
-66.13
-52.91
-33.78
-9.41
18.85
49.06
78.70
105.19
126.53
141.92
152.10
158.86
164.25
169.61
175.12
179.92
182.78
182.81
179.76
173.96
165.79
155.35
142.39
126.57
107.88
86.88
64.55
42.07
20.47
0.36
-17.97
-34.56
-49.52
-62.90
-74.71
-84.83
-93.29
-100.38
-106.96
-114.34
-124.07
-137.37
-154.70
-175.45
-197.99
-219.90
-238.36
-250.41
-253.35
-245.25
-225.47
-195.23
-157.53
-116.61
-76.81
-41.54
-12.63
9.52
25.35
35.47
40.24
40.02
35.43
27.67
18.44
9.54
2.38
-2.39
-4.86
-5.67
-5.58
-5.21
-4.93
-4.98
-5.58
-7.11
-9.97
-14.45
-20.48
-27.62
-35.16
-42.48
-49.20
-55.26
-60.71
-65.44
-69.13
-71.36
-71.94
-71.10
-69.49
-67.91
-66.93
-66.62
-66.62
-66.25
-64.70
-61.13
-54.69
-44.66
-30.73
-13.31
6.25
25.79
42.86
55.39
62.36
63.95
61.40
56.39
50.45
44.58
39.13
34.05
29.12
24.24
19.45
14.97
11.09
8.13
6.49
6.51
8.47
12.42
18.10
24.92
32.14
39.00
44.93
49.63
52.91
54.70
54.87
53.29
49.84
44.59
37.76
29.81
21.28
12.69
4.39
-3.57
-11.53
-20.22
-30.49
-42.95
-57.44
-72.70
-86.44
-95.90
-98.78
-94.04
-82.37
-65.85
-47.25
-29.11
-13.05
0.27
10.93
19.25
25.50
29.82
32.40
33.65
34.19
34.76
35.99
38.25
41.54
45.67
50.32
55.21
60.05
64.52
68.20
70.55
71.03
69.28
65.30
59.45
52.44
45.01
37.74
30.84
24.11
17.12
9.49
1.15
-7.66
-16.42
-24.63
-32.11
-39.07
-46.19
-54.35
-64.38
-76.64
-90.66
-104.97
-117.26
-124.78
-125.10
-116.81
-100.09
-76.68
-49.46
-21.69
3.78
25.01
41.18
52.36
59.15
62.34
62.74
61.09
58.15
54.72
51.59
49.44
48.68
49.39
51.29
53.92
56.79
59.41
61.44
62.57
62.51
61.03
58.01
53.47
47.65
40.91
33.64
26.14
18.58
11.01
3.42
-4.22
-11.82
-19.29
-26.56
-33.66
-40.83
-48.52
-57.32
-67.78
-80.10
-93.74
-107.21
-118.09
-123.59
-121.38
-110.38
-91.32
-66.59
-39.50
-13.32
9.58
28.05
41.99
51.85
58.11
61.11
61.15
58.74
54.77
50.45
47.00
45.36
45.82
48.09
51.40
54.93
58.04
60.44
62.08
62.98
63.02
61.83
58.97
54.09
47.20
38.74
29.47
20.25
11.71
4.11
-2.75
-9.43
-16.60
-24.75
-33.98
-43.92
-53.80
-62.83
-70.46
-76.77
-82.39
-88.44
-96.08
-106.17
-118.74
-132.79
-146.18
-155.89
-158.72
-152.07
-134.87
-108.01
-74.30
-37.72
-2.39
28.45
52.98
70.88
82.83
89.95
93.31
93.80
92.16
89.13
85.54
82.20
79.75
78.50
78.42
79.14
80.18
81.11
81.60
81.46
80.53
78.67
75.72
71.58
66.16
59.55
51.90
43.48
34.65
25.80
17.31
9.51
2.55
-3.61
-9.28
-14.92
-21.03
-27.93
-35.64
-43.84
-51.90
-59.16
-65.21
-70.02
-74.03
-78.10
-83.23
-90.34
-99.89
-111.49
-123.69
-133.98
-139.23
-136.55
-124.23
-102.42
-73.30
-40.48
-7.97
20.90
44.16
61.29
72.85
79.85
83.29
84.03
82.79
80.33
77.52
75.16
73.89
73.91
75.05
76.86
78.88
80.76
82.39
83.78
84.88
85.47
85.19
83.58
80.28
75.19
68.48
60.58
52.01
43.28
34.75
26.66
19.07
11.91
4.98
-2.01
-9.45
-17.71
-27.03
-37.32
-48.13
-58.69
-68.17
-75.93
-81.76
-85.98
-89.33
-92.82
-97.47
-104.10
-112.99
-123.58
-134.19
-142.16
-144.28
-137.71
-121.01
-94.73
-61.51
-25.35
9.47
39.56
63.08
79.80
90.64
96.94
99.87
100.22
98.49
95.12
90.75
86.17
82.15
79.12
77.00
75.29
73.34
70.76
67.59
64.26
61.29
58.98
57.18
55.34
52.73
48.74
43.19
36.31
28.70
21.05
13.80
7.06
0.52
-6.31
-13.79
-21.90
-30.21
-38.12
-45.16
-51.34
-57.16
-63.51
-71.28
-81.14
-93.37
-107.80
-123.74
-139.80
-153.85
-163.24
-165.28
-158.14
-141.50
-116.93
-87.49
-56.97
-28.82
-5.40
12.27
24.27
31.32
34.22
33.65
30.16
24.44
17.47
10.60
5.31
2.91
4.17
9.12
17.06
26.84
37.13
46.79
54.98
61.21
65.23
66.87
65.96
62.25
55.60
45.98
33.67
19.28
3.59
-12.56
-28.58
-44.10
-59.06
-73.52
-87.61
-101.43
-115.05
-128.39
-141.04
-151.95
-159.19
-160.15
-152.19
-133.58
-104.38
-66.81
-24.79
16.97
54.29
84.34
106.06
119.85
126.99
128.96
127.07
122.34
115.57
107.51
98.88
90.41
82.75
76.36
71.52
68.35
66.74
66.46
67.09
67.99
68.42
67.65
65.09
60.48
53.89
45.67
36.25
26.06
15.38
4.39
-6.75
-17.87
-28.66
-38.78
-47.93
-56.04
-63.31
-70.36
-78.03
-87.13
-98.06
-110.43
-122.72
-132.46
-136.58
-132.35
-118.22
-94.55
-63.63
-29.23
4.47
33.88
56.74
72.25
80.83
83.59
81.88
77.11
70.58
63.52
56.97
51.66
47.91
45.67
44.60
44.34
44.53
44.92
45.27
45.27
44.47
42.40
38.65
33.07
25.85
17.51
8.75
0.21
-7.74
-15.12
-22.28
-29.65
-37.47
-45.66
-53.77
-61.26
-67.79
-73.36
-78.49
-84.07
-91.19
-100.78
-113.13
-127.40
-141.36
-151.58
-154.23
-146.29
-126.70
-96.92
-60.66
-22.75
12.20
40.96
62.08
75.67
82.81
84.84
83.03
78.51
72.27
65.33
58.66
53.10
49.23
47.25
47.03
48.21
50.29
52.77
55.19
57.13
58.15
57.87
56.00
52.45
47.37
41.13
34.22
27.01
19.68
12.16
4.29
-4.02
-12.68
-21.35
-29.64
-37.31
-44.43
-51.48
-59.24
-68.53
-79.86
-93.06
-106.93
-119.13
-126.62
-126.34
-116.24
-96.12
-67.92
-35.26
-2.41
26.82
49.99
66.26
76.05
80.46
80.72
77.93
73.04
67.04
60.92
55.66
52.03
50.37
50.62
52.27
54.66
57.12
59.10
60.21
60.24
59.03
56.54
52.78
47.93
42.20
35.86
29.15
22.18
15.00
7.56
-0.12
-7.99
-15.91
-23.71
-31.27
-38.53
-45.62
-52.83
-60.70
-69.81
-80.49
-92.35
-103.97
-112.86
-116.04
-110.99
-96.64
-73.96
-45.82
-16.14
11.34
33.98
50.67
61.55
67.40
69.12
67.38
62.81
56.24
48.89
42.19
37.49
35.62
36.61
39.77
43.94
47.98
51.12
53.02
53.81
53.71
52.89
51.27
48.61
44.67
39.37
32.97
26.03
19.28
13.36
8.58
4.76
1.36
-2.33
-6.84
-12.32
-18.45
-24.63
-30.26
-34.99
-38.91
-42.47
-46.39
-51.43
-58.31
-67.43
-78.66
-91.01
-102.48
-110.22
-111.32
-103.60
-86.59
-61.87
-32.72
-3.21
23.01
43.51
57.51
65.52
68.78
68.66
66.27
62.43
57.84
53.25
49.50
47.34
47.21
49.00
52.15
55.78
59.02
61.32
62.44
62.41
61.31
59.15
55.88
51.46
45.99
39.74
33.07
26.31
19.68
13.26
7.07
1.14
-4.48
-9.82
-15.00
-20.28
-25.95
-32.10
-38.59
-44.98
-50.76
-55.57
-59.39
-62.63
-65.94
-70.11
-75.78
-83.32
-92.58
-102.78
-112.41
-119.34
-121.35
-116.73
-104.96
-87.03
-65.25
-42.62
-21.93
-5.12
7.05
14.80
18.89
20.14
19.20
16.55
12.74
8.48
4.68
2.19
1.65
3.14
6.32
10.51
15.02
19.37
23.39
27.05
30.32
32.94
34.46
34.37
32.30
28.22
22.53
15.90
9.17
2.99
-2.31
-6.87
-11.19
-15.89
-21.38
-27.58
-33.90
-39.53
-43.84
-46.81
-49.23
-52.45
-57.93
-66.78
-79.23
-94.46
-110.61
-125.01
-134.66
-136.81
-129.68
-113.00
-88.27
-58.48
-27.40
1.41
25.41
43.61
56.39
65.06
71.06
75.40
78.46
80.08
80.02
78.39
75.81
73.28
71.69
71.47
72.42
73.94
75.40
76.55
77.49
78.41
79.19
79.25
77.61
73.40
66.25
56.60
45.49
34.22
23.81
14.76
6.99
0.09
-6.46
-13.04
-19.81
-26.80
-33.89
-40.87
-47.42
-53.08
-57.51
-60.65
-62.88
-64.90
-67.30
-70.05
-72.07
-71.50
-66.32
-55.34
-38.77
-18.37
3.22
23.31
39.96
52.28
60.17
63.94
63.91
60.43
53.95
45.30
35.75
26.71
19.44
14.66
12.33
11.86
12.36
13.00
13.18
12.57
11.00
8.44
5.06
1.37
-1.87
-3.90
-4.40
-3.70
-2.77
-2.82
-4.74
-8.73
-14.32
-20.71
-27.18
-33.39
-39.41
-45.60
-52.45
-60.47
-70.10
-81.46
-94.08
-106.55
-116.61
-121.60
-119.20
-108.32
-89.52
-64.98
-37.92
-11.75
10.83
28.28
40.30
47.53
51.11
52.20
51.74
50.39
48.63
46.84
45.35
44.46
44.32
44.85
45.74
46.50
46.55
45.32
42.41
37.59
30.92
22.73
13.56
4.11
-4.93
-12.95
-19.58
-24.71
-28.49
-31.28
-33.52
-35.59
-37.64
-39.61
-41.26
-42.35
-42.88
-43.27
-44.43
-47.55
-53.62
-62.80
-73.91
-84.23
-90.09
-87.87
-75.36
-52.64
-22.30
11.38
43.70
70.99
91.36
104.85
112.68
116.50
117.58
116.56
113.62
108.73
101.99
93.77
84.54
74.85
65.16
55.78
46.92
38.69
31.10
23.99
17.12
10.16
2.88
-4.79
-12.69
-20.47
-27.64
-33.76
-38.64
-42.41
-45.58
-48.82
-52.64
-57.08
-61.73
-65.99
-69.62
-73.08
-77.50
-84.12
-93.40
-104.33
-114.32
-119.93
-118.01
-106.95
-87.29
-61.58
-33.53
-6.83
15.75
32.89
44.64
51.90
55.97
58.14
59.69
61.75
65.25
70.57
77.30
84.24
89.79
92.65
92.36
89.54
85.38
81.02
76.85
72.49
67.09
60.05
51.37
41.62
31.53
21.56
11.64
1.34
-9.77
-21.76
-34.23
-46.39
-57.43
-66.79
-74.43
-80.79
-86.72
-93.13
-100.80
-110.07
-120.64
-131.53
-141.08
-147.16
-147.64
-140.94
-126.48
-105.03
-78.57
-49.84
-21.72
3.42
24.13
40.07
51.75
60.19
66.46
71.31
75.11
77.91
79.71
80.74
81.45
82.51
84.39
87.29
90.90
94.51
97.25
98.32
97.28
94.26
89.90
85.13
80.78
77.25
74.30
71.27
67.49
62.65
56.91
50.69
44.28
37.53
29.83
20.42
8.60
-5.95
-23.31
-43.30
-65.39
-88.43
-110.40
-128.44
-139.44
-140.99
-132.32
-114.70
-91.14
-65.54
-41.48
-21.32
-5.86
5.51
14.04
20.94
26.73
31.31
34.33
35.72
36.05
36.28
37.21
38.87
40.47
40.77
38.98
35.33
31.04
27.60
25.95
25.86
26.10
25.16
22.02
16.59
9.61
2.11
-5.14
-11.92
-18.51
-25.54
-33.65
-43.40
-55.17
-69.14
-85.06
-101.95
-117.88
-130.05
-135.31
-131.05
-116.16
-91.57
-60.12
-25.83
7.23
35.76
57.79
72.65
80.65
82.70
80.02
73.99
65.95
57.10
48.34
40.22
32.95
26.57
21.02
16.29
12.43
9.51
7.59
6.60
6.28
6.13
5.45
3.59
0.10
-4.94
-11.06
-17.47
-23.51
-28.98
-34.37
-40.70
-49.19
-60.90
-76.22
-94.71
-114.87
-134.22
-149.53
-157.40
-155.14
-141.61
-117.76
-86.59
-52.32
-19.28
9.20
31.52
47.78
59.36
68.14
75.77
83.35
91.14
98.81
105.59
110.70
113.62
114.34
113.43
111.86
110.72
110.80
112.31
114.70
116.83
117.32
115.09
109.69
101.47
91.35
80.37
69.17
57.65
44.89
29.45
9.82
-14.89
-44.30
-76.43
-107.81
-134.19
-151.55
-157.26
-150.82
-133.99
-110.22
-83.69
-58.24
-36.55
-19.70
-7.18
2.69
11.97
22.24
33.94
46.19
57.18
64.99
68.36
67.15
62.20
54.92
46.72
38.69
31.52
25.50
20.61
16.49
12.52
7.87
1.89
-5.74
-14.80
-24.75
-34.94
-44.97
-54.91
-65.30
-77.02
-90.77
-106.52
-122.94
-137.36
-146.17
-145.92
-134.43
-111.67
-79.92
-43.15
-5.87
27.96
55.77
76.56
90.66
99.18
103.45
104.70
103.79
101.23
97.25
91.86
85.02
76.70
66.97
56.18
44.91
34.00
24.28
16.34
10.28
5.66
1.63
-2.74
-8.14
-14.81
-22.57
-30.95
-39.45
-47.74
-55.73
-63.54
-71.42
-79.46
-87.44
-94.59
-99.57
-100.61
-95.97
-84.59
-66.66
-43.79
-18.79
5.23
25.72
41.37
52.23
59.27
63.62
66.04
66.81
65.94
63.63
60.59
57.90
56.77
58.02
61.78
67.38
73.59
78.97
82.21
82.55
79.91
74.83
68.28
61.24
54.39
47.90
41.50
34.68
26.86
17.59
6.58
-6.10
-19.87
-33.32
-44.31
-50.39
-49.52
-41.01
-25.98
-7.08
12.30
29.15
41.64
49.18
52.16
51.28
47.14
40.20
30.95
20.03
8.35
-3.04
-13.00
-20.43
-24.43
-24.51
-20.97
-15.02
-8.64
-3.93
-2.34
-4.04
-8.08
-12.93
-17.46
-21.47
-25.70
-31.21
-38.71
-48.18
-59.02
-70.39
-81.47
-91.29
-98.50
-101.22
-97.43
-85.71
-66.12
-40.56
-12.39
14.55
36.96
52.98
62.28
65.80
65.09
61.69
56.80
51.20
45.41
39.89
35.11
31.58
29.60
29.21
30.05
31.51
32.90
33.56
32.99
30.81
26.82
21.00
13.48
4.58
-5.35
-16.14
-27.93
-41.16
-56.38
-73.81
-92.88
-112.01
-128.58
-139.46
-141.80
-133.93
-116.02
-90.12
-59.77
-28.95
-1.04
21.96
39.56
52.41
61.45
67.21
69.55
67.96
62.18
52.78
41.23
29.54
19.51
12.08
7.12
3.73
0.83
-2.25
-5.65
-9.12
-12.40
-15.48
-18.70
-22.52
-27.25
-32.97
-39.47
-46.43
-53.39
-59.73
-64.54
-66.58
-64.44
-56.90
-43.40
-24.30
-0.96
24.59
50.05
73.33
92.86
107.74
117.76
123.14
124.44
122.25
117.14
109.57
100.01
88.89
76.66
63.73
50.42
36.98
23.62
10.59
-1.84
-13.39
-23.91
-33.49
-42.47
-51.36
-60.76
-71.27
-83.26
-96.75
-111.09
-124.81
-135.79
-141.67
-140.59
-131.84
-116.05
-94.94
-70.72
-45.42
-20.57
2.78
23.78
41.62
55.55
65.09
70.29
71.71
70.22
66.68
61.70
55.71
48.98
41.83
34.60
27.66
21.30
15.65
10.73
6.39
2.40
-1.52
-5.77
-10.81
-17.17
-25.50
-36.35
-49.99
-66.03
-83.09
-98.79
-110.13
-114.15
-108.85
-93.80
-70.23
-40.76
-8.64
22.92
51.29
74.67
92.11
103.40
108.96
109.57
106.15
99.55
90.43
79.34
66.87
53.74
40.77
28.76
18.25
9.32
1.62
-5.43
-12.34
-19.39
-26.51
-33.50
-40.21
-46.73
-53.39
-60.63
-68.79
-77.99
-88.09
-98.57
-108.56
-116.70
-121.24
-120.27
-112.26
-96.77
-74.78
-48.70
-21.68
3.23
23.89
39.35
49.63
55.21
56.67
54.55
49.65
43.24
37.06
32.97
32.34
35.57
41.96
49.97
57.79
63.94
67.60
68.70
67.63
64.99
61.18
56.35
50.27
42.56
32.92
21.53
9.34
-1.82
-9.56
-11.59
-6.46
5.79
23.55
44.02
63.97
80.56
91.79
96.69
95.13
87.65
75.29
59.42
41.68
23.67
6.78
-8.06
-20.40
-30.23
-37.85
-43.69
-48.19
-51.69
-54.33
-55.94
-56.16
-54.65
-51.40
-47.09
-43.06
-41.09
-42.76
-48.81
-58.70
-70.56
-81.64
-88.92
-89.86
-83.05
-68.44
-47.45
-22.62
2.98
26.48
45.74
59.77
68.52
72.56
72.61
69.27
63.14
55.01
46.01
37.46
30.49
25.56
22.25
19.44
15.86
10.68
3.93
-3.50
-10.30
-15.35
-18.30
-19.75
-21.09
-23.95
-29.59
-38.37
-49.49
-61.13
-70.74
-75.75
-74.16
-65.14
-49.27
-28.39
-5.09
17.88
38.17
54.15
64.86
69.92
69.37
63.70
53.93
41.54
28.28
15.75
4.99
-3.76
-10.99
-17.53
-24.18
-31.25
-38.44
-45.03
-50.13
-53.16
-54.15
-53.95
-54.10
-56.57
-63.01
-74.16
-89.18
-105.54
-119.46
-126.94
-125.04
-112.80
-91.58
-64.48
-35.34
-7.54
16.66
36.19
50.76
60.39
65.14
65.25
61.46
55.16
48.26
42.65
39.57
39.31
41.20
44.08
46.83
48.83
50.00
50.69
51.33
52.13
52.90
53.07
51.78
48.05
41.16
31.01
18.49
5.55
-5.05
-10.44
-8.59
0.99
17.00
36.67
56.53
73.32
84.73
89.76
88.54
82.07
71.72
58.88
44.86
30.72
17.26
5.07
-5.58
-14.72
-22.67
-29.88
-36.72
-43.31
-49.38
-54.33
-57.51
-58.61
-57.94
-56.58
-56.14
-58.23
-63.75
-72.40
-82.51
-91.41
-96.17
-94.39
-84.97
-68.28
-46.02
-20.74
4.79
28.07
47.19
61.00
69.04
71.45
68.89
62.39
53.20
42.57
31.61
21.10
11.43
2.70
-5.16
-12.25
-18.53
-23.92
-28.28
-31.64
-34.26
-36.71
-39.87
-44.73
-52.07
-62.12
-74.16
-86.41
-96.23
-100.72
-97.44
-85.20
-64.48
-37.35
-7.02
22.94
49.36
70.06
84.11
91.67
93.63
91.12
85.23
76.87
66.78
55.72
44.40
33.45
23.25
13.90
5.35
-2.46
-9.43
-15.32
-19.94
-23.37
-26.21
-29.52
-34.72
-43.14
-55.62
-71.96
-90.56
-108.45
-121.73
-126.59
-120.49
-103.07
-76.50
-44.88
-13.07
14.70
35.77
49.36
56.17
57.66
55.31
50.35
43.72
36.23
28.61
21.41
14.79
8.49
1.90
-5.48
-13.69
-22.05
-29.37
-34.36
-36.23
-35.13
-32.21
-29.40
-28.74
-31.72
-38.55
-47.76
-56.24
-59.93
-54.93
-38.79
-11.53
24.25
64.04
102.76
136.16
161.76
179.00
188.73
192.43
191.57
187.34
180.64
172.06
161.83
149.67
134.84
116.44
93.99
67.92
39.82
12.02
-13.03
-33.73
-49.79
-62.32
-73.32
-84.96
-98.84
-115.31
-133.26
-150.13
-162.44
-166.59
-159.83
-141.12
-111.60
-74.42
-34.08
4.63
37.74
62.94
79.75
89.24
93.21
93.39
90.91
86.16
79.20
70.14
59.44
47.80
35.87
24.06
12.50
1.27
-9.34
-18.82
-26.76
-33.24
-39.06
-45.66
-54.61
-67.02
-82.88
-100.78
-117.91
-130.62
-135.36
-129.76
-113.52
-88.60
-58.64
-27.74
0.84
25.30
45.30
61.19
73.28
81.44
85.38
85.17
81.55
75.78
69.11
62.17
54.85
46.58
36.98
26.25
15.18
4.74
-4.53
-12.91
-21.49
-31.89
-45.58
-63.35
-84.72
-107.67
-128.74
-143.66
-148.45
-140.65
-120.29
-90.03
-54.46
-18.76
12.76
37.55
55.03
66.19
72.73
76.38
78.41
79.48
79.57
78.13
74.29
67.21
56.49
42.44
26.13
9.13
-7.02
-21.26
-33.35
-43.82
-53.75
-64.40
-76.85
-91.58
-108.00
-124.23
-137.11
-142.74
-137.69
-120.10
-90.65
-52.40
-9.99
31.80
69.28
100.44
124.83
142.92
155.54
163.50
167.59
168.60
167.28
164.23
159.66
153.48
145.43
135.45
123.99
111.96
100.48
90.33
81.52
73.02
62.92
48.93
29.18
3.02
-28.36
-61.81
-92.76
-116.25
-128.32
-127.17
-113.78
-91.51
-65.18
-39.60
-18.37
-3.30
5.62
9.56
10.10
8.71
6.47
4.09
2.08
0.86
0.63
1.33
2.50
3.33
2.96
0.92
-2.65
-7.02
-11.35
-15.43
-20.05
-26.92
-37.76
-53.05
-71.16
-88.28
-99.50
-100.61
-89.75
-68.14
-39.64
-9.29
18.34
40.33
55.63
64.68
68.58
68.47
65.22
59.57
52.15
43.60
34.45
25.05
15.54
5.99
-3.37
-12.04
-19.22
-24.05
-25.96
-25.06
-22.39
-19.83
-19.60
-23.49
-31.91
-43.37
-54.51
-61.05
-59.12
-46.72
-24.53
4.33
35.21
63.44
85.56
99.91
106.56
106.70
101.95
93.80
83.46
71.82
59.60
47.41
35.69
24.72
14.50
4.91
-4.26
-13.11
-21.64
-29.82
-37.71
-45.63
-54.18
-64.09
-75.76
-88.81
-101.67
-111.63
-115.54
-110.83
-96.62
-74.24
-46.95
-18.95
5.96
25.41
38.75
46.66
50.43
51.25
49.93
46.95
42.68
37.57
32.13
26.91
22.33
18.74
16.38
15.46
16.10
18.27
21.67
25.63
29.06
30.53
28.60
22.36
12.09
-0.33
-11.45
-17.11
-13.71
0.40
24.21
54.24
85.68
113.95
135.92
150.52
158.36
160.96
159.83
156.00
149.75
140.81
128.61
112.55
92.29
68.02
40.63
11.70
-16.70
-42.55
-64.35
-81.55
-94.65
-105.00
-114.47
-124.96
-137.76
-153.07
-169.47
-183.95
-192.43
-190.90
-176.87
-150.41
-114.39
-73.76
-34.05
0.19
26.35
43.97
54.09
58.55
59.20
57.66
55.11
52.23
49.16
45.58
40.87
34.59
26.75
17.93
9.03
0.84
-6.32
-12.75
-19.27
-26.92
-36.67
-49.03
-63.66
-79.02
-92.28
-99.85
-98.38
-86.08
-63.54
-33.87
-1.81
27.74
51.09
66.45
73.88
74.54
69.96
61.58
50.77
38.96
27.71
18.38
11.77
7.85
5.85
4.77
3.88
3.01
2.33
1.86
1.08
-1.23
-6.70
-16.66
-31.44
-49.84
-69.04
-85.09
-93.86
-92.31
-79.48
-57.03
-28.72
0.67
26.78
46.74
59.52
65.66
66.51
63.53
57.91
50.50
41.88
32.49
22.66
12.70
2.94
-6.25
-14.43
-21.14
-26.18
-29.69
-32.49
-35.98
-42.02
-52.35
-67.90
-87.89
-109.58
-128.56
-139.82
-139.35
-125.53
-99.72
-65.89
-29.26
5.33
34.61
57.30
73.73
84.99
92.25
96.33
97.71
96.75
93.85
89.49
84.18
78.33
72.24
66.03
59.67
53.01
45.86
37.96
29.12
19.08
7.60
-5.44
-19.70
-33.96
-45.91
-52.38
-50.22
-37.54
-14.72
15.37
48.01
78.09
101.63
116.73
123.43
123.08
117.28
107.31
94.00
78.00
60.08
41.20
22.32
4.15
-12.94
-28.86
-43.57
-56.90
-68.62
-78.62
-87.11
-94.76
-102.60
-111.64
-122.40
-134.30
-145.47
-152.96
-153.44
-144.34
-124.81
-96.24
-62.02
-26.53
6.06
32.91
52.93
66.56
75.05
79.66
81.12
79.65
75.19
67.85
58.14
46.97
35.36
24.13
13.74
4.28
-4.33
-12.30
-19.97
-27.90
-37.02
-48.36
-62.56
-79.24
-96.56
-111.34
-119.88
-119.08
-107.59
-86.34
-58.24
-27.21
3.01
29.67
51.40
67.94
79.66
87.06
90.53
90.25
86.37
79.15
69.15
57.31
44.79
32.75
22.02
12.82
4.71
-3.16
-11.93
-22.66
-36.24
-53.12
-72.92
-94.06
-113.59
-127.57
-132.08
-124.59
-105.07
-76.27
-43.00
-10.59
16.73
36.84
49.85
57.45
61.73
64.31
65.78
65.67
62.95
56.58
46.12
31.98
15.37
-2.06
-18.78
-33.78
-46.75
-58.00
-68.23
-78.36
-89.25
-101.48
-114.76
-127.55
-136.91
-138.99
-130.31
-109.07
-76.17
-35.19
8.65
50.14
85.49
113.04
132.93
146.29
154.32
157.82
157.27
153.10
146.01
136.98
127.04
117.00
107.32
98.06
89.02
79.89
70.33
59.85
47.80
33.23
15.12
-7.13
-32.97
-60.19
-84.88
-102.34
-108.57
-101.76
-83.24
-57.10
-28.87
-3.62
15.44
27.46
33.45
35.18
34.24
31.58
27.54
22.28
16.03
9.24
2.52
-3.64
-9.03
-13.71
-18.12
-22.72
-27.94
-34.05
-41.33
-50.11
-60.84
-73.74
-88.17
-102.13
-112.22
-114.49
-105.82
-85.43
-55.47
-20.61
13.52
42.18
62.81
75.27
81.14
82.44
80.69
76.48
69.85
60.69
49.36
36.69
23.84
11.90
1.57
-7.02
-14.19
-20.60
-27.04
-34.29
-43.08
-53.89
-66.77
-80.96
-94.54
-104.49
-107.24
-99.69
-80.50
-50.87
-14.66
22.65
55.40
79.51
93.36
97.98
96.06
90.72
84.30
77.78
70.86
62.66
52.47
40.28
26.86
13.36
0.85
-10.11
-19.57
-27.98
-36.07
-44.63
-54.56
-66.82
-82.02
-99.87
-118.50
-134.32
-142.76
-139.72
-123.16
-94.18
-56.83
-16.81
20.46
51.46
75.01
91.80
103.06
109.47
110.72
105.95
94.55
76.92
54.73
30.57
7.14
-13.52
-30.46
-43.82
-54.43
-63.28
-71.26
-79.10
-87.52
-97.16
-108.15
-119.41
-128.32
-130.96
-123.34
-102.95
-70.09
-28.12
17.58
61.35
98.92
128.36
149.84
164.65
174.20
179.39
180.64
178.26
172.73
164.88
155.61
145.67
135.44
125.02
114.39
103.60
92.88
82.44
72.24
61.63
49.23
33.22
12.12
-14.29
-44.21
-73.78
-97.99
-112.33
-114.40
-104.87
-87.23
-66.40
-47.08
-32.30
-23.04
-18.60
-17.59
-18.76
-21.32
-24.88
-29.07
-33.22
-36.49
-38.08
-37.70
-35.68
-32.92
-30.53
-29.37
-29.95
-32.43
-37.07
-44.36
-54.94
-68.86
-84.83
-99.85
-109.56
-109.66
-97.57
-73.67
-41.42
-6.25
26.31
52.29
70.11
80.32
84.50
84.29
80.71
74.23
65.11
53.78
40.94
27.44
14.02
1.17
-10.91
-22.19
-32.75
-42.68
-52.05
-60.98
-69.79
-78.98
-88.99
-99.68
-109.69
-116.24
-115.51
-103.87
-79.44
-43.23
0.70
46.31
87.43
119.46
140.35
150.42
151.52
145.88
135.37
121.30
104.52
85.76
65.74
45.26
25.20
6.37
-10.51
-24.97
-36.90
-46.70
-55.20
-63.69
-73.74
-86.88
-104.02
-124.67
-146.37
-164.65
-173.96
-169.31
-148.20
-111.85
-65.19
-15.50
29.80
65.17
88.14
99.12
100.46
95.11
85.61
73.66
60.29
46.22
32.22
19.28
8.39
0.20
-5.27
-8.72
-11.32
-14.36
-18.84
-25.41
-34.40
-45.89
-59.47
-73.77
-86.10
-92.56
-89.03
-72.63
-43.16
-3.61
40.49
82.82
118.22
144.06
160.47
169.39
173.30
174.04
172.40
168.33
161.53
151.98
140.19
127.01
113.33
99.73
86.39
73.08
59.30
44.35
27.34
7.16
-17.41
-47.28
-82.28
-120.42
-157.49
-187.58
-204.59
-204.17
-185.48
-151.74
-109.32
-65.65
-27.02
3.02
23.84
36.98
44.73
49.12
51.39
52.04
51.14
48.49
43.86
37.04
28.09
17.47
6.10
-4.78
-14.08
-21.28
-26.85
-32.31
-39.84
-51.58
-68.70
-90.46
-113.93
-134.28
-146.01
-144.64
-128.25
-98.29
-59.21
-17.15
21.90
53.59
75.95
89.16
94.84
95.02
91.53
85.64
78.06
69.15
59.14
48.25
36.81
25.28
14.09
3.77
-5.23
-12.54
-18.10
-22.49
-27.02
-33.52
-43.45
-56.67
-70.68
-80.75
-81.36
-68.41
-41.10
-2.62
40.82
82.15
115.71
138.59
150.67
153.61
149.46
139.79
125.43
106.84
84.61
59.83
34.15
9.44
-12.59
-30.87
-45.05
-55.48
-62.96
-68.52
-73.31
-78.78
-86.61
-98.43
-114.91
-134.86
-154.66
-168.74
-171.16
-157.70
-127.68
-84.52
-34.75
14.02
55.36
85.41
103.19
109.81
107.42
98.23
84.07
66.47
46.81
26.51
7.05
-10.19
-24.13
-34.17
-40.31
-43.14
-43.71
-43.38
-43.63
-45.93
-51.52
-60.92
-73.35
-86.19
-95.17
-95.31
-82.62
-55.75
-16.96
28.44
73.67
112.76
142.14
161.13
171.29
175.03
174.52
171.08
165.35
157.66
148.42
138.32
128.18
118.84
110.88
104.54
99.45
94.67
88.63
79.40
64.93
43.59
14.66
-21.09
-60.96
-100.34
-133.42
-154.53
-159.89
-148.92
-124.67
-92.88
-60.24
-32.32
-12.21
-0.28
5.12
6.41
5.78
4.50
2.92
0.74
-2.63
-7.73
-14.80
-23.62
-33.51
-43.43
-52.15
-58.64
-62.36
-63.68
-64.02
-65.73
-71.36
-82.53
-98.62
-116.18
-129.49
-132.37
-120.59
-93.76
-55.67
-12.97
27.30
60.01
83.17
97.48
105.10
108.11
107.71
104.25
97.77
88.58
77.42
65.25
52.92
40.92
29.42
18.37
7.76
-2.40
-12.13
-21.65
-31.45
-42.20
-54.22
-67.06
-78.93
-86.72
-86.59
-75.31
-51.58
-16.98
24.07
65.53
101.49
127.90
143.46
149.33
148.06
142.35
134.09
124.09
112.46
99.04
83.85
67.27
49.97
32.82
16.62
2.04
-10.55
-21.24
-30.62
-39.82
-50.41
-64.01
-81.62
-102.80
-125.07
-143.99
-154.11
-150.75
-131.69
-98.37
-55.66
-10.43
30.52
62.28
82.72
92.26
92.88
86.97
76.58
63.11
47.59
30.95
14.23
-1.35
-14.64
-24.82
-31.65
-35.53
-37.46
-38.73
-40.71
-44.69
-51.69
-62.18
-75.63
-90.01
-101.73
-106.18
-99.08
-78.12
-44.09
-1.05
44.78
86.92
120.61
143.78
157.00
162.50
162.77
159.62
153.91
145.77
135.19
122.51
108.51
94.19
80.45
67.78
56.10
44.93
33.47
20.70
5.33
-14.15
-39.12
-69.95
-105.12
-140.64
-170.54
-188.50
-190.00
-174.24
-144.53
-107.27
-69.64
-37.34
-13.17
2.96
12.97
19.22
23.40
26.28
27.87
27.92
26.25
22.93
18.23
12.55
6.28
-0.20
-6.49
-12.28
-17.47
-22.48
-28.43
-36.97
-49.71
-67.21
-87.99
-108.33
-123.03
-127.14
-117.79
-95.45
-63.79
-28.38
5.23
33.15
53.75
67.31
75.12
78.49
78.31
75.08
69.14
60.92
51.03
40.13
28.79
17.43
6.33
-4.31
-14.16
-22.78
-29.72
-34.90
-38.87
-42.89
-48.49
-56.52
-66.19
-74.69
-77.82
-71.52
-53.72
-25.48
9.12
44.36
74.84
97.02
109.85
114.21
111.92
104.64
93.47
79.01
61.77
42.59
22.71
3.61
-13.38
-27.55
-38.95
-48.30
-56.70
-65.25
-74.84
-86.18
-99.84
-116.10
-134.53
-153.36
-169.20
-177.57
-174.22
-156.87
-126.46
-87.29
-45.71
-8.07
21.22
40.64
51.22
55.31
55.30
52.72
48.30
42.33
35.27
27.90
21.14
15.78
12.17
10.12
9.14
8.57
7.85
6.45
3.75
-1.11
-9.22
-21.34
-37.13
-54.41
-69.11
-76.13
-71.07
-51.95
-20.36
18.91
59.34
94.90
121.72
138.78
147.36
149.73
147.97
143.35
136.33
127.08
115.90
103.38
90.30
77.29
64.63
52.27
39.93
27.31
14.17
0.29
-14.74
-31.58
-50.94
-73.02
-96.77
-119.32
-136.25
-142.66
-134.94
-112.38
-77.89
-37.26
2.64
35.97
59.44
72.61
77.18
75.68
70.42
63.00
54.33
44.95
35.30
25.81
16.85
8.74
1.56
-4.80
-10.62
-16.28
-22.23
-28.95
-37.04
-47.34
-60.72
-77.62
-97.31
-117.19
-132.86
-139.07
-131.39
-108.02
-70.71
-24.46
24.07
68.53
104.46
129.93
145.08
151.22
150.01
142.98
131.53
117.03
100.83
84.24
68.32
53.87
41.41
31.26
23.54
18.16
14.78
12.71
10.90
7.96
2.18
-8.18
-24.39
-46.39
-72.07
-97.14
-115.86
-122.69
-114.26
-90.78
-56.20
-16.93
20.15
49.76
69.30
78.74
79.67
74.12
63.81
49.92
33.38
15.17
-3.65
-22.04
-39.22
-54.85
-68.87
-81.37
-92.36
-101.71
-109.21
-114.77
-118.75
-122.11
-126.39
-133.10
-142.80
-154.25
-164.02
-167.18
-159.02
-136.90
-101.70
-57.77
-11.57
30.45
63.70
86.34
98.81
102.87
100.52
93.53
83.36
71.54
59.62
49.14
41.28
36.69
35.48
37.34
41.64
47.43
53.43
58.02
59.43
56.02
46.63
31.06
10.48
-12.22
-32.53
-45.15
-45.28
-30.29
-0.88
38.81
82.29
122.76
154.95
176.23
186.44
186.84
178.88
163.46
141.07
112.40
78.99
43.38
8.60
-22.66
-48.76
-69.45
-85.51
-98.10
-108.21
-116.34
-122.74
-127.80
-132.49
-138.40
-147.31
-160.42
-177.37
-195.70
-210.92
-217.66
-211.33
-189.95
-155.02
-111.22
-64.85
-21.75
14.36
42.36
63.09
78.03
88.26
94.02
95.26
92.24
86.03
78.34
70.83
64.42
59.06
53.88
47.83
40.36
31.62
22.26
12.90
3.59
-6.47
-18.73
-34.72
-55.15
-79.07
-103.39
-123.16
-132.78
-127.83
-106.74
-71.66
-27.93
17.70
59.17
92.70
117.12
133.12
142.16
145.53
144.20
139.06
131.17
121.66
111.40
100.66
89.08
76.11
61.46
45.43
28.83
12.59
-2.73
-17.20
-31.56
-47.00
-64.84
-85.94
-110.01
-135.02
-156.93
-170.39
-170.19
-153.27
-120.13
-75.22
-25.73
20.61
57.74
82.64
95.34
97.98
93.53
84.86
74.33
63.79
54.45
46.75
40.13
33.19
24.22
11.96
-3.77
-21.98
-40.81
-58.40
-73.57
-86.26
-97.60
-109.46
-123.66
-140.99
-160.33
-178.32
-189.95
-189.84
-173.98
-141.21
-93.82
-37.00
22.61
78.60
126.14
162.54
187.14
200.71
204.86
201.55
192.92
181.12
168.11
155.46
144.05
133.99
124.77
115.63
106.01
95.86
85.62
75.83
66.66
57.58
47.25
33.88
15.70
-8.18
-37.02
-68.00
-96.37
-116.49
-123.53
-115.22
-92.83
-60.99
-26.17
5.32
29.00
42.99
47.62
44.44
35.36
22.17
6.49
-10.03
-25.82
-39.54
-50.41
-58.28
-63.64
-67.24
-69.85
-71.98
-73.91
-75.86
-78.21
-81.61
-87.02
-95.40
-107.14
-121.51
-136.16
-147.26
-150.23
-141.06
-117.81
-81.54
-36.46
11.21
54.92
89.62
112.88
124.90
127.67
123.78
115.44
104.10
90.60
75.54
59.56
43.37
27.62
12.74
-1.03
-13.61
-24.98
-35.15
-44.34
-53.11
-62.49
-73.86
-88.56
-107.21
-128.94
-150.89
-168.42
-176.10
-169.41
-146.26
-107.98
-59.09
-6.00
44.70
87.81
120.35
141.48
151.92
153.23
147.28
135.89
120.78
103.41
84.92
66.07
47.38
29.29
12.31
-2.92
-15.72
-25.66
-32.83
-37.98
-42.59
-48.71
-58.59
-73.95
-95.18
-120.40
-145.25
-163.47
-168.58
-155.98
-124.79
-78.43
-23.81
30.72
77.64
111.97
131.85
138.13
133.34
120.74
103.53
84.45
65.67
48.68
34.31
22.91
14.43
8.58
4.90
2.83
1.68
0.71
-0.91
-4.09
-9.89
-19.47
-33.64
-52.14
-72.91
-91.71
-102.83
-100.66
-81.83
-46.78
-0.06
50.98
98.58
136.96
163.67
179.48
187.12
189.58
188.96
186.12
181.08
173.61
163.75
151.88
138.51
124.09
108.81
92.66
75.53
57.31
37.88
17.11
-5.39
-30.21
-58.01
-89.03
-122.27
-154.93
-182.38
-199.10
-200.37
-184.12
-152.10
-109.59
-63.90
-22.06
11.09
33.79
46.90
52.71
53.68
51.63
47.65
42.30
35.96
28.91
21.39
13.55
5.52
-2.47
-10.02
-16.62
-21.90
-25.87
-29.26
-33.52
-40.66
-52.48
-69.70
-91.07
-112.93
-129.89
-136.21
-127.87
-104.16
-68.25
-26.24
14.82
49.07
73.31
87.18
92.31
91.03
85.36
76.55
65.26
51.94
37.07
21.29
5.34
-10.04
-24.13
-36.23
-45.80
-52.53
-56.47
-58.13
-58.45
-58.76
-60.57
-65.22
-73.17
-83.21
-92.07
-94.86
-86.48
-63.70
-26.88
19.54
68.30
111.65
143.85
162.62
168.95
165.73
156.03
141.99
124.69
104.76
83.02
60.80
39.75
21.27
6.18
-5.46
-14.15
-20.64
-25.71
-30.11
-34.72
-40.69
-49.54
-62.74
-80.99
-103.24
-126.02
-143.70
-149.83
-139.36
-110.80
-67.29
-15.92
34.48
76.14
104.63
119.41
122.90
118.69
109.86
98.17
84.31
68.60
51.57
34.23
17.77
3.26
-8.63
-17.59
-23.65
-26.98
-27.97
-27.26
-25.90
-25.42
-27.65
-34.32
-46.15
-61.93
-78.03
-88.84
-88.36
-72.40
-40.45
3.87
53.90
102.29
143.38
174.46
195.63
208.53
214.96
216.01
212.09
203.40
190.44
174.10
155.49
135.67
115.40
95.16
75.10
55.08
34.63
13.07
-10.30
-36.03
-64.36
-95.36
-128.74
-163.46
-197.11
-225.60
-243.61
-246.00
-229.83
-195.88
-148.92
-96.29
-45.58
-2.29
31.24
55.49
72.44
84.04
91.39
94.74
94.08
89.70
82.43
73.40
63.65
53.82
43.97
33.90
23.34
12.27
0.83
-10.86
-23.06
-36.64
-52.88
-72.74
-95.84
-119.60
-139.31
-149.13
-144.11
-122.15
-85.17
-38.72
9.77
53.44
87.89
111.78
126.17
133.14
134.55
131.53
124.71
114.76
102.69
89.75
77.17
65.69
55.52
46.47
38.26
30.72
23.77
17.23
10.64
3.01
-7.09
-21.15
-40.01
-63.03
-87.55
-109.00
-121.99
-121.99
-107.09
-78.89
-42.20
-3.42
31.49
58.56
76.49
86.03
88.90
86.78
80.82
71.72
60.03
46.40
31.59
16.26
0.92
-14.09
-28.42
-41.61
-53.12
-62.49
-69.69
-75.29
-80.70
-87.96
-99.27
-116.09
-137.98
-162.00
-182.81
-193.99
-190.19
-169.07
-132.45
-85.65
-35.73
10.91
50.20
80.88
103.65
119.91
130.76
136.76
138.30
136.11
131.50
126.08
121.31
118.01
116.36
116.12
116.96
118.75
121.50
125.13
129.15
132.49
133.56
130.82
123.58
113.00
102.55
97.52
103.66
124.99
162.10
211.49
266.52
319.48
363.75
395.29
412.73
416.68
408.68
390.64
364.78
333.75
300.57
268.09
238.29
211.82
188.02
165.53
143.10
120.22
97.27
75.23
55.03
37.06
20.95
5.77
-9.52
-25.54
-42.19
-58.84
-74.58
-88.81
-101.51
-113.22
-124.87
-137.41
-151.62
-167.88
-185.96
-204.65
-221.80
-234.59
-240.30
-237.39
-226.35
-209.82
-191.89
-176.83
-167.78
-166.09
-171.32
-181.90
-195.77
-210.87
-225.39
-237.86
-247.38
-253.92
-258.47
-262.88
-269.26
-279.25
-293.04
-308.78
-322.55
-329.01
-322.90
-300.72
-262.28
-211.26
-154.53
-100.30
-55.88
-25.77
-10.67
-7.95
-12.99
-20.97
-28.44
-33.98
-38.02
-41.96
-47.17
-54.11
-62.17
-70.01
-76.24
-80.04
-81.43
-81.04
-79.73
-78.30
-77.45
-78.09
-81.43
-88.69
-100.21
-114.42
-127.27
-132.84
-125.13
-100.50
-59.48
-7.16
48.41
98.84
138.01
163.36
175.71
177.83
172.84
163.31
151.09
137.61
124.20
111.85
100.91
90.81
80.19
67.55
51.92
33.39
13.10
-7.30
-26.23
-42.86
-57.38
-70.92
-85.06
-100.90
-117.96
-133.49
-142.54
-139.30
-119.35
-81.79
-30.30
27.73
83.56
130.07
163.72
184.81
196.12
