1636462975.00
64.000000
-0.00
-0.00
-0.00
-0.00
-0.00
-0.00
-0.00
-0.00
-0.00
-0.00
0.00
0.01
0.01
-0.00
-0.03
-0.05
-0.05
0.00
0.13
0.36
0.66
1.01
1.37
1.72
2.06
2.40
2.79
3.24
3.80
4.42
5.06
5.66
6.20
6.68
7.15
7.68
8.31
9.14
10.09
11.04
11.88
12.56
13.14
13.76
14.65
15.96
17.91
20.32
22.90
25.38
27.58
29.57
31.68
34.32
37.81
42.54
48.15
54.10
59.83
64.97
69.58
74.14
79.34
85.71
93.76
103.00
112.62
121.73
129.77
136.75
143.30
150.75
157.77
166.64
177.95
191.79
206.97
220.57
228.25
225.36
208.53
176.87
132.76
80.05
23.07
-34.94
-92.44
-149.16
-205.23
-260.37
-313.74
-363.87
-409.83
-450.91
-486.50
-515.74
-537.23
-549.22
-549.96
-538.37
-514.21
-478.67
-433.88
-382.45
-327.02
-269.84
-212.63
-156.66
-102.95
-52.37
-5.90
35.58
71.43
101.35
125.50
144.38
158.69
169.15
176.37
180.75
182.57
182.07
179.51
175.23
169.65
163.18
156.15
148.81
141.30
133.69
126.02
118.33
110.69
103.16
95.80
88.68
81.83
75.25
68.95
62.95
57.25
51.86
46.78
42.03
37.59
33.45
29.61
26.07
22.81
19.83
17.11
14.67
12.48
10.53
8.83
7.35
6.09
5.01
4.08
3.27
2.55
1.92
1.39
0.96
0.65
0.46
0.34
0.26
0.16
0.01
-0.18
-0.38
-0.54
-0.60
-0.56
-0.47
-0.42
-0.48
-0.70
-1.04
-1.37
-1.55
-1.50
-1.22
-0.84
-0.60
-0.70
-1.22
-2.04
-2.88
-3.40
-3.38
-2.83
-2.07
-1.58
-1.81
-2.94
-4.75
-6.66
-7.96
-8.16
-7.25
-5.79
-4.73
-4.91
-6.69
-9.68
-12.82
-14.88
-15.05
-13.38
-10.80
-8.74
-8.45
-10.50
-14.57
-19.59
-24.09
-26.46
-25.37
-20.01
-10.51
1.92
15.15
26.66
34.40
37.44
36.27
32.50
28.21
25.16
24.27
25.47
27.89
30.41
32.33
33.96
36.40
40.83
47.50
54.66
59.01
56.70
45.56
26.75
4.63
-15.07
-27.73
-32.33
-31.89
-31.74
-36.49
-47.24
-61.05
-72.70
-77.57
-73.90
-63.19
-48.61
-32.84
-16.88
-0.34
16.99
33.83
47.31
54.17
52.48
43.07
29.67
17.48
11.40
14.34
26.63
45.89
67.61
85.90
95.34
92.84
78.40
55.43
28.91
3.79
-16.94
-33.09
-46.30
-58.22
-68.98
-77.16
-80.71
-79.18
-74.06
-68.52
-65.97
-68.17
-74.32
-81.37
-86.08
-84.49
-77.33
-67.29
-57.56
-50.84
-49.05
-53.46
-63.99
-79.78
-96.97
-110.12
-112.97
-100.97
-73.68
-35.54
5.69
42.60
70.27
88.11
98.76
106.77
116.32
130.30
150.63
174.35
199.79
224.66
245.66
258.44
259.19
246.10
220.28
185.76
148.26
113.90
86.47
66.73
52.98
42.81
34.66
28.40
24.78
24.11
25.91
28.42
29.93
30.13
30.86
35.05
44.75
59.16
74.21
84.21
83.82
70.14
43.39
6.34
-36.90
-81.56
-122.50
-154.46
-172.64
-174.25
-159.62
-132.59
-99.31
-65.91
-36.30
-11.38
10.21
30.13
48.43
63.00
70.45
67.65
53.08
27.14
-8.30
-50.46
-95.87
-140.41
-179.32
-207.87
-222.63
-222.78
-210.63
-191.01
-169.70
-151.64
-139.66
-134.24
-134.01
-136.67
-139.57
-140.09
-135.83
-124.98
-106.81
-82.22
-53.67
-24.81
0.58
19.64
31.29
36.26
36.61
34.72
32.37
30.19
27.69
23.78
17.41
8.18
-3.41
-16.04
-27.87
-37.05
-42.12
-42.39
-38.01
-29.89
-19.39
-7.96
3.23
13.38
22.09
29.24
34.82
38.92
41.70
43.39
44.22
44.32
43.64
42.04
39.36
35.57
30.84
25.56
20.30
15.65
12.10
9.91
8.95
8.79
8.84
8.61
7.84
6.60
5.20
3.90
2.89
2.14
1.56
1.03
0.52
0.01
-0.51
-1.04
-1.59
-2.04
-2.23
-1.91
-0.85
1.09
3.86
7.26
10.94
14.52
17.67
20.15
21.88
22.86
23.18
22.97
22.39
21.65
20.94
20.39
20.03
19.76
19.39
18.73
17.61
16.01
14.03
11.91
9.95
8.40
7.35
6.63
5.94
4.90
3.26
0.98
-1.74
-4.61
-7.38
-9.84
-11.84
-13.25
-13.89
-13.57
-12.22
-9.94
-7.08
-4.11
-1.43
0.69
2.30
3.65
5.01
6.54
8.14
9.48
10.12
9.74
8.24
5.85
3.15
0.89
-0.18
0.39
2.69
6.33
10.66
14.99
18.80
21.83
23.96
25.15
25.38
24.74
23.57
22.42
21.87
22.22
23.29
24.49
25.20
25.18
24.76
24.54
25.01
26.01
26.65
25.70
22.19
15.99
7.87
-0.74
-8.41
-14.25
-18.12
-20.46
-21.87
-22.80
-23.41
-23.58
-23.14
-22.02
-20.30
-18.20
-16.00
-13.92
-12.09
-10.56
-9.27
-8.13
-7.08
-6.12
-5.39
-4.99
-5.01
-5.37
-5.93
-6.52
-7.07
-7.65
-8.31
-9.04
-9.67
-9.87
-9.34
-7.91
-5.65
-2.84
0.19
3.19
6.07
8.84
11.47
13.77
15.37
15.89
15.12
13.25
10.80
8.46
6.75
5.86
5.66
5.92
6.44
7.15
7.96
8.65
8.78
7.93
5.87
2.83
-0.54
-3.46
-5.32
-5.99
-5.84
-5.57
-5.96
-7.46
-10.10
-13.46
-16.83
-19.45
-20.78
-20.56
-18.87
-15.94
-12.11
-7.73
-3.22
0.96
4.34
6.63
7.84
8.30
8.53
8.98
9.84
11.00
12.11
12.82
12.91
12.28
10.93
8.89
6.22
3.12
0.00
-2.60
-4.23
-4.73
-4.34
-3.63
-3.23
-3.52
-4.45
-5.70
-6.83
-7.62
-8.14
-8.63
-9.38
-10.47
-11.73
-12.86
-13.51
-13.40
-12.37
-10.42
-7.72
-4.55
-1.24
1.95
4.87
7.54
10.00
12.16
13.74
14.40
13.98
12.71
11.13
9.88
9.34
9.43
9.71
9.64
8.91
7.59
6.03
4.64
3.70
3.23
3.12
3.23
3.45
3.66
3.70
3.38
2.47
0.80
-1.61
-4.52
-7.43
-9.71
-10.76
-10.21
-8.05
-4.69
-0.82
2.88
5.95
8.23
9.90
11.24
12.51
13.79
14.97
15.85
16.24
16.06
15.37
14.36
13.22
12.13
11.21
10.49
10.02
9.75
9.63
9.51
9.23
8.59
7.50
6.00
4.20
2.25
0.26
-1.81
-4.03
-6.41
-8.82
-10.98
-12.57
-13.35
-13.27
-12.51
-11.31
-9.89
-8.33
-6.51
-4.25
-1.45
1.77
5.15
8.26
10.70
12.23
12.75
12.33
11.10
9.27
7.11
4.90
2.94
1.39
0.28
-0.50
-1.09
-1.58
-1.91
-1.94
-1.58
-0.89
-0.12
0.38
0.32
-0.45
-1.94
-4.08
-6.76
-9.86
-13.18
-16.35
-18.89
-20.29
-20.21
-18.53
-15.43
-11.26
-6.44
-1.44
3.26
7.19
9.96
11.44
11.81
11.57
11.37
11.72
12.80
14.31
15.63
16.05
15.16
12.96
9.96
6.86
4.33
2.76
2.16
2.28
2.81
3.48
4.11
4.55
4.59
3.95
2.42
-0.02
-3.21
-6.75
-10.19
-13.13
-15.29
-16.56
-16.91
-16.38
-15.10
-13.22
-10.97
-8.67
-6.60
-4.98
-3.86
-3.15
-2.66
-2.20
-1.66
-0.98
-0.16
0.75
1.65
2.37
2.77
2.75
2.37
1.84
1.45
1.35
1.52
1.79
1.88
1.59
0.84
-0.38
-1.97
-3.87
-5.99
-8.26
-10.59
-12.87
-14.90
-16.42
-17.09
-16.65
-14.96
-12.21
-8.79
-5.18
-1.79
1.18
3.69
5.79
7.51
8.81
9.61
9.85
9.51
8.60
7.28
5.78
4.48
3.78
3.95
4.98
6.56
8.16
9.28
9.63
9.23
8.30
7.07
5.66
3.96
1.83
-0.80
-3.84
-7.08
-10.26
-13.18
-15.65
-17.45
-18.27
-17.79
-15.82
-12.43
-8.05
-3.29
1.16
4.78
7.24
8.53
8.80
8.35
7.59
6.88
6.48
6.46
6.75
7.18
7.59
7.90
8.13
8.29
8.42
8.51
8.54
8.42
8.01
7.09
5.47
3.11
0.18
-3.01
-6.10
-8.95
-11.57
-14.05
-16.36
-18.14
-18.81
-17.85
-15.08
-10.93
-6.40
-2.57
-0.20
0.72
0.91
1.35
2.79
5.09
7.42
8.57
7.63
4.50
-0.15
-5.47
-11.22
-18.00
-26.82
-38.28
-51.85
-65.97
-78.83
-89.28
-97.06
-102.16
-103.71
-99.51
-86.95
-65.03
-36.27
-6.96
14.80
22.76
15.70
-1.68
-20.86
-33.55
-35.37
-27.20
-13.46
0.93
13.70
25.82
40.03
58.24
79.78
101.50
119.49
131.04
135.47
133.64
126.64
114.99
98.98
79.69
59.79
43.24
33.95
34.22
43.99
61.34
83.85
109.95
139.23
171.81
207.01
242.55
274.77
299.77
314.88
319.54
315.22
304.19
288.05
266.83
239.14
203.40
159.38
109.19
57.08
8.04
-34.13
-68.16
-95.64
-120.02
-145.06
-172.99
-203.39
-233.01
-256.61
-268.86
-266.63
-250.84
-227.14
-204.77
-194.07
-202.95
-233.65
-281.29
-334.57
-378.78
-399.89
-388.61
-343.36
-271.35
-187.19
-109.03
-53.03
-28.38
-34.35
-61.14
-94.14
-119.40
-127.90
-116.88
-88.38
-46.90
2.13
52.51
96.85
127.08
136.86
124.63
95.29
59.04
27.47
9.07
6.35
15.90
30.99
44.92
53.54
55.78
52.92
47.28
41.12
36.17
33.36
32.84
34.15
36.45
38.61
39.60
38.56
34.87
28.36
19.28
8.52
-2.48
-11.97
-18.50
-21.40
-21.10
-18.88
-16.28
-14.34
-13.14
-11.85
-9.31
-4.78
1.62
8.88
15.55
20.44
23.07
23.82
23.55
23.16
23.17
23.57
24.03
24.13
23.61
22.46
20.86
19.04
17.13
15.12
12.91
10.35
7.39
4.05
0.50
-3.03
-6.34
-9.24
-11.59
-13.28
-14.19
-14.19
-13.14
-10.99
-7.86
-4.03
0.06
3.96
7.33
10.03
12.05
13.49
14.48
15.09
15.38
15.42
15.27
15.03
14.80
14.60
14.42
14.18
13.81
13.24
12.47
11.47
10.24
8.74
6.92
4.71
2.14
-0.74
-3.83
-6.94
-9.94
-12.70
-15.06
-16.84
-17.79
-17.71
-16.49
-14.18
-11.02
-7.34
-3.50
0.24
3.70
6.77
9.39
11.45
12.85
13.53
13.54
13.04
12.27
11.46
10.78
10.30
9.98
9.74
9.52
9.27
8.96
8.56
8.01
7.27
6.31
5.14
3.85
2.47
1.07
-0.32
-1.74
-3.25
-4.92
-6.82
-8.94
-11.16
-13.21
-14.75
-15.43
-15.04
-13.53
-11.06
-7.91
-4.40
-0.80
2.64
5.73
8.39
10.63
12.55
14.32
16.01
17.58
18.83
19.52
19.54
19.04
18.35
17.88
17.88
18.35
19.02
19.50
19.46
18.76
17.49
15.84
13.99
12.06
10.03
7.88
5.58
3.15
0.61
-2.03
-4.86
-7.92
-11.24
-14.63
-17.72
-20.03
-21.14
-20.81
-19.05
-16.05
-12.17
-7.78
-3.27
1.11
5.12
8.63
11.56
13.85
15.49
16.53
17.05
17.24
17.30
17.43
17.73
18.16
18.53
18.60
18.21
17.29
15.96
14.39
12.78
11.28
9.92
8.63
7.24
5.60
3.58
1.17
-1.53
-4.33
-7.07
-9.66
-12.16
-14.73
-17.46
-20.30
-22.98
-25.10
-26.23
-26.14
-24.80
-22.44
-19.33
-15.73
-11.82
-7.75
-3.62
0.37
4.01
7.10
9.54
11.30
12.47
13.19
13.60
13.84
13.97
14.01
13.95
13.77
13.48
13.13
12.77
12.48
12.24
11.92
11.30
10.15
8.37
6.04
3.37
0.64
-1.94
-4.29
-6.44
-8.50
-10.55
-12.67
-14.97
-17.52
-20.35
-23.38
-26.33
-28.78
-30.27
-30.49
-29.33
-26.96
-23.69
-19.89
-15.89
-11.99
-8.37
-5.20
-2.57
-0.51
1.05
2.25
3.26
4.27
5.37
6.54
7.70
8.70
9.43
9.85
10.00
9.96
9.76
9.37
8.75
7.88
6.80
5.60
4.38
3.15
1.85
0.44
-1.07
-2.59
-4.03
-5.34
-6.66
-8.17
-10.09
-12.48
-15.21
-17.94
-20.24
-21.67
-21.88
-20.72
-18.24
-14.66
-10.37
-5.80
-1.32
2.79
6.39
9.40
11.78
13.55
14.76
15.55
16.08
16.56
17.12
17.81
18.56
19.23
19.71
19.94
19.96
19.92
19.95
20.08
20.16
19.95
19.16
17.66
15.52
13.02
10.53
8.32
6.44
4.78
3.07
1.07
-1.36
-4.23
-7.36
-10.49
-13.23
-15.21
-16.11
-15.77
-14.22
-11.68
-8.56
-5.27
-2.16
0.55
2.83
4.72
6.28
7.54
8.48
9.12
9.56
9.92
10.27
10.60
10.74
10.57
10.04
9.30
8.58
8.05
7.72
7.34
6.65
5.47
3.89
2.23
0.82
-0.20
-0.95
-1.80
-3.08
-4.97
-7.38
-10.08
-12.80
-15.39
-17.75
-19.74
-21.13
-21.57
-20.81
-18.84
-15.93
-12.57
-9.21
-6.13
-3.39
-0.89
1.42
3.49
5.20
6.46
7.26
7.69
7.90
7.97
7.92
7.73
7.37
6.85
6.20
5.45
4.60
3.56
2.21
0.45
-1.76
-4.30
-7.00
-9.59
-11.91
-13.89
-15.63
-17.30
-19.11
-21.18
-23.47
-25.77
-27.78
-29.14
-29.53
-28.75
-26.78
-23.72
-19.84
-15.45
-10.89
-6.51
-2.61
0.56
2.87
4.32
5.07
5.37
5.54
5.79
6.26
6.95
7.74
8.53
9.19
9.69
9.97
10.00
9.73
9.12
8.14
6.88
5.53
4.26
3.22
2.43
1.83
1.29
0.71
0.04
-0.73
-1.59
-2.50
-3.37
-4.03
-4.18
-3.57
-2.00
0.48
3.62
7.03
10.32
13.25
15.73
17.80
19.53
20.94
22.00
22.68
22.97
22.93
22.67
22.27
21.78
21.16
20.35
19.29
17.92
16.33
14.62
12.89
11.26
9.73
8.19
6.48
4.49
2.17
-0.42
-3.12
-5.81
-8.45
-11.10
-13.84
-16.68
-19.50
-22.03
-23.92
-24.88
-24.73
-23.49
-21.32
-18.48
-15.24
-11.84
-8.47
-5.27
-2.30
0.38
2.71
4.61
5.97
6.70
6.83
6.47
5.84
5.16
4.53
3.94
3.28
2.42
1.30
-0.01
-1.36
-2.63
-3.72
-4.66
-5.55
-6.54
-7.76
-9.32
-11.22
-13.42
-15.89
-18.56
-21.35
-24.12
-26.61
-28.50
-29.42
-29.09
-27.41
-24.46
-20.47
-15.79
-10.79
-5.86
-1.34
2.49
5.53
7.83
9.60
11.10
12.55
14.11
15.82
17.63
19.50
21.30
22.92
24.20
24.99
25.21
24.84
23.93
22.58
20.89
18.88
16.58
14.05
11.39
8.79
6.36
4.11
1.88
-0.60
-3.57
-7.08
-10.92
-14.62
-17.64
-19.55
-20.21
-19.75
-18.49
-16.78
-14.88
-12.85
-10.70
-8.45
-6.28
-4.54
-3.54
-3.38
-3.81
-4.27
-4.06
-2.71
-0.06
3.73
8.42
13.97
20.56
28.21
36.45
44.26
50.65
55.47
59.88
66.21
76.97
93.53
115.28
139.47
161.99
178.38
184.69
178.06
156.74
120.41
70.36
9.89
-55.33
-117.62
-168.47
-200.58
-210.13
-198.17
-170.32
-134.79
-99.43
-69.33
-46.11
-28.91
-16.02
-6.08
2.05
10.10
20.92
37.80
62.80
95.02
130.23
162.13
184.83
194.77
191.60
177.50
155.74
129.54
101.12
71.85
42.47
13.52
-14.40
-40.56
-64.14
-84.25
-100.14
-111.39
-117.96
-120.29
-119.13
-115.30
-109.46
-102.01
-93.08
-82.87
-71.78
-60.53
-49.98
-40.95
-33.90
-28.75
-24.87
-21.12
-15.99
-7.93
4.14
20.20
38.61
56.10
68.43
71.66
63.80
45.94
22.31
-0.89
-17.64
-24.29
-20.82
-10.49
1.67
10.89
14.10
10.23
-0.38
-16.86
-38.16
-62.83
-88.55
-112.20
-130.43
-140.94
-143.42
-139.55
-132.09
-123.47
-114.66
-105.03
-93.22
-78.27
-60.53
-41.83
-24.84
-12.14
-5.22
-4.10
-7.42
-12.99
-18.51
-22.17
-23.05
-21.08
-16.94
-11.64
-6.30
-1.83
1.17
2.42
1.96
-0.01
-3.09
-6.84
-10.70
-14.19
-16.93
-18.69
-19.44
-19.33
-18.56
-17.27
-15.45
-12.97
-9.63
-5.45
-0.68
4.12
8.32
11.45
13.41
14.46
15.04
15.61
16.35
17.21
18.02
18.59
18.85
18.92
18.98
19.20
19.62
20.16
20.64
20.83
20.59
19.96
19.15
18.45
18.10
18.11
18.23
18.05
17.16
15.37
12.76
9.66
6.57
4.03
2.49
2.29
3.51
6.00
9.39
13.22
17.05
20.62
23.85
26.76
29.34
31.44
32.80
33.13
32.30
30.38
27.71
24.79
22.12
20.07
18.75
17.96
17.37
16.62
15.45
13.82
11.86
9.73
7.54
5.31
2.97
0.44
-2.30
-5.28
-8.50
-11.91
-15.41
-18.79
-21.72
-23.78
-24.58
-23.84
-21.52
-17.84
-13.25
-8.32
-3.55
0.67
4.19
7.00
9.19
10.86
12.08
12.89
13.35
13.55
13.68
13.87
14.21
14.67
15.11
15.37
15.31
14.90
14.15
13.11
11.79
10.19
8.31
6.26
4.17
2.14
0.19
-1.84
-4.17
-6.95
-10.16
-13.61
-16.92
-19.63
-21.33
-21.73
-20.71
-18.35
-14.91
-10.80
-6.39
-2.05
2.00
5.62
8.77
11.40
13.47
14.96
15.84
16.18
16.10
15.75
15.30
14.91
14.63
14.46
14.29
14.01
13.56
12.95
12.24
11.53
10.84
10.08
9.12
7.81
6.02
3.76
1.09
-1.85
-4.91
-8.04
-11.20
-14.36
-17.45
-20.23
-22.35
-23.41
-23.15
-21.50
-18.67
-15.06
-11.07
-7.06
-3.27
0.21
3.28
5.80
7.62
8.61
8.81
8.44
7.87
7.45
7.41
7.75
8.25
8.61
8.65
8.32
7.77
7.18
6.70
6.32
5.94
5.36
4.48
3.31
1.95
0.58
-0.68
-1.84
-3.01
-4.36
-6.03
-8.03
-10.23
-12.36
-14.02
-14.83
-14.53
-13.00
-10.37
-6.84
-2.62
2.15
7.41
12.97
18.46
23.32
26.95
29.07
29.97
30.49
31.70
34.36
38.55
43.58
48.30
51.70
53.46
54.14
54.94
57.11
61.26
67.02
73.13
77.99
80.52
80.76
80.01
80.31
83.53
90.51
100.68
112.42
123.76
133.21
140.14
144.65
146.82
146.22
141.63
131.20
113.11
86.02
49.36
3.52
-49.89
-107.30
-162.82
-208.88
-238.37
-247.58
-238.74
-220.03
-202.46
-195.37
-202.39
-219.91
-239.16
-250.77
-249.21
-235.93
-218.49
-207.08
-210.44
-232.34
-269.88
-314.32
-353.81
-377.15
-378.23
-356.87
-317.26
-265.66
-207.58
-146.47
-84.26
-22.71
35.62
86.42
125.81
153.05
170.72
183.93
198.37
216.90
237.66
261.25
286.62
308.20
321.24
322.63
311.84
290.90
263.53
233.87
205.26
178.56
153.07
128.40
104.81
83.51
65.96
52.91
43.94
37.65
31.56
23.68
13.68
2.53
-8.04
-16.49
-22.16
-25.48
-27.52
-29.91
-33.80
-39.09
-44.79
-49.46
-51.88
-51.46
-48.35
-43.19
-37.02
-30.86
-25.26
-20.41
-16.24
-12.59
-9.33
-6.40
-3.81
-1.64
0.05
1.27
2.12
2.67
2.99
3.14
3.15
3.14
3.13
3.16
3.18
3.09
2.79
2.20
1.34
0.23
-1.05
-2.50
-4.14
-6.01
-8.13
-10.41
-12.63
-14.46
-15.57
-15.70
-14.80
-12.88
-10.10
-6.57
-2.40
2.28
7.28
12.37
17.43
22.53
27.86
33.52
39.34
44.69
48.64
50.32
49.31
45.80
40.49
34.24
27.74
21.34
15.15
9.23
3.68
-1.26
-5.46
-8.94
-11.91
-14.73
-17.72
-21.02
-24.55
-28.04
-31.15
-33.68
-35.61
-37.09
-38.36
-39.52
-40.40
-40.63
-39.71
-37.31
-33.38
-28.24
-22.45
-16.66
-11.46
-7.22
-4.07
-1.96
-0.71
-0.09
0.08
-0.10
-0.55
-1.16
-1.77
-2.15
-2.09
-1.51
-0.51
0.68
1.73
2.40
2.53
2.12
1.25
-0.01
-1.58
-3.41
-5.50
-7.84
-10.41
-13.20
-16.16
-19.18
-22.09
-24.58
-26.17
-26.38
-24.84
-21.56
-16.90
-11.55
-6.19
-1.34
2.77
6.12
8.75
10.56
11.41
11.21
10.10
8.45
6.75
5.45
4.68
4.38
4.31
4.19
3.85
3.23
2.33
1.23
0.04
-1.09
-2.04
-2.72
-3.12
-3.34
-3.56
-4.03
-5.01
-6.76
-9.44
-13.00
-17.14
-21.30
-24.79
-26.89
-27.06
-25.08
-21.08
-15.54
-9.18
-2.81
2.93
7.64
11.23
13.84
15.74
17.17
18.32
19.30
20.15
20.88
21.41
21.63
21.50
21.09
20.61
20.36
20.52
21.04
21.61
21.78
21.19
19.73
17.48
14.75
11.83
8.95
6.23
3.67
1.19
-1.34
-4.02
-6.90
-9.95
-12.94
-15.55
-17.36
-17.98
-17.17
-14.91
-11.45
-7.25
-2.90
1.08
4.32
6.76
8.53
9.89
11.05
12.11
13.05
13.79
14.23
14.35
14.20
13.86
13.42
12.98
12.60
12.34
12.20
12.12
11.95
11.54
10.67
9.25
7.26
4.84
2.19
-0.42
-2.83
-5.00
-7.05
-9.21
-11.69
-14.55
-17.68
-20.71
-23.11
-24.37
-24.11
-22.17
-18.69
-14.03
-8.73
-3.34
1.67
5.97
9.40
11.93
13.63
14.59
14.96
14.95
14.76
14.55
14.39
14.27
14.11
13.85
13.48
13.04
12.52
11.92
11.12
10.02
8.51
6.56
4.19
1.52
-1.30
-4.14
-6.91
-9.58
-12.16
-14.72
-17.32
-19.96
-22.57
-24.98
-26.94
-28.08
-28.03
-26.46
-23.30
-18.74
-13.24
-7.42
-1.89
2.90
6.73
9.57
11.50
12.60
13.03
12.93
12.55
12.17
12.04
12.29
12.86
13.52
14.01
14.09
13.63
12.67
11.31
9.69
7.92
6.06
4.14
2.16
0.11
-2.02
-4.27
-6.64
-9.24
-12.14
-15.46
-19.18
-23.09
-26.74
-29.54
-30.91
-30.44
-28.05
-23.97
-18.70
-12.85
-6.96
-1.46
3.36
7.39
10.60
12.98
14.56
15.38
15.53
15.22
14.71
14.30
14.20
14.46
14.88
15.14
14.87
13.78
11.87
9.37
6.65
4.10
1.96
0.25
-1.15
-2.42
-3.71
-5.10
-6.66
-8.49
-10.77
-13.66
-17.17
-21.12
-25.13
-28.66
-31.15
-32.14
-31.41
-29.08
-25.49
-21.17
-16.58
-12.10
-7.89
-4.10
-0.91
1.42
2.67
2.78
1.95
0.59
-0.87
-2.09
-2.95
-3.47
-3.75
-3.82
-3.76
-3.58
-3.36
-3.19
-3.12
-3.18
-3.38
-3.73
-4.28
-5.06
-6.07
-7.29
-8.74
-10.53
-12.80
-15.66
-19.08
-22.78
-26.27
-28.99
-30.42
-30.20
-28.26
-24.70
-19.87
-14.22
-8.25
-2.40
3.05
7.95
12.26
15.97
19.07
21.56
23.44
24.83
25.82
26.49
26.82
26.78
26.30
25.37
24.11
22.66
21.21
19.91
18.82
17.93
17.12
16.19
14.96
13.30
11.18
8.76
6.10
3.26
0.08
-3.65
-8.06
-13.10
-18.42
-23.48
-27.63
-30.31
-31.17
-30.15
-27.51
-23.68
-19.21
-14.61
-10.24
-6.25
-2.67
0.53
3.36
5.75
7.57
8.71
9.17
9.16
9.07
9.42
10.66
13.01
16.26
19.86
23.11
25.40
26.44
26.34
25.42
24.18
23.07
22.50
22.76
24.01
26.18
28.95
31.96
34.97
38.09
41.84
46.85
53.57
61.79
70.60
78.50
83.88
85.44
82.55
75.44
65.00
52.58
39.58
27.16
16.06
6.63
-1.15
-7.49
-12.80
-17.55
-22.23
-27.21
-32.63
-38.45
-44.48
-50.59
-56.68
-62.47
-67.34
-70.19
-69.61
-64.55
-54.91
-41.99
-28.39
-17.31
-11.57
-12.70
-20.55
-33.34
-48.32
-62.65
-74.10
-81.50
-84.66
-83.89
-79.53
-71.63
-60.08
-45.04
-27.49
-9.41
6.36
16.94
20.32
16.06
5.64
-7.92
-20.95
-30.17
-33.56
-30.72
-22.65
-11.14
1.90
14.92
26.73
36.32
42.68
44.80
42.03
34.51
23.42
10.90
-0.41
-8.19
-11.04
-8.91
-2.94
5.01
13.09
20.09
25.63
30.09
34.19
38.64
43.84
49.96
56.93
64.55
72.40
79.81
85.71
88.69
87.02
78.85
62.60
37.44
3.88
-35.80
-77.57
-116.34
-147.06
-166.00
-171.53
-164.19
-146.17
-120.40
-89.78
-56.86
-23.71
7.93
36.66
61.27
80.90
95.02
103.57
106.88
105.62
100.51
92.11
80.59
65.92
48.25
28.35
7.76
-11.52
-27.74
-39.97
-48.30
-53.60
-56.82
-58.49
-58.47
-56.29
-51.49
-44.04
-34.53
-23.94
-13.46
-4.07
3.67
9.73
14.50
18.45
21.87
24.64
26.42
26.88
26.05
24.39
22.57
21.13
20.24
19.63
18.83
17.52
15.69
13.65
11.89
10.83
10.60
11.07
11.89
12.68
13.22
13.47
13.52
13.52
13.45
13.13
12.31
10.75
8.41
5.43
2.13
-1.21
-4.37
-7.23
-9.69
-11.67
-13.08
-13.93
-14.34
-14.48
-14.56
-14.66
-14.73
-14.64
-14.25
-13.48
-12.28
-10.60
-8.40
-5.67
-2.54
0.70
3.65
5.94
7.37
8.05
8.29
8.48
8.92
9.70
10.66
11.52
12.01
11.92
11.25
10.08
8.62
7.09
5.73
4.76
4.36
4.61
5.38
6.37
7.09
7.01
5.77
3.17
-0.66
-5.38
-10.50
-15.46
-19.66
-22.58
-23.80
-23.06
-20.36
-15.93
-10.21
-3.87
2.35
7.78
11.93
14.69
16.29
17.24
18.14
19.38
21.11
23.22
25.51
27.88
30.35
32.99
35.71
38.22
40.04
40.74
40.16
38.46
36.09
33.56
31.30
29.59
28.52
28.06
27.99
27.89
27.14
25.05
21.10
15.18
7.70
-0.42
-8.02
-14.02
-17.65
-18.65
-17.22
-14.00
-9.81
-5.51
-1.71
1.23
3.30
4.67
5.52
5.89
5.71
4.87
3.38
1.39
-0.73
-2.60
-3.89
-4.43
-4.22
-3.41
-2.24
-1.03
-0.13
0.06
-0.79
-2.88
-6.16
-10.31
-14.82
-19.08
-22.59
-25.06
-26.55
-27.42
-28.23
-29.54
-31.63
-34.36
-37.11
-38.99
-39.16
-37.24
-33.50
-28.77
-24.14
-20.49
-18.20
-17.10
-16.62
-16.24
-15.65
-14.90
-14.25
-14.01
-14.26
-14.86
-15.40
-15.33
-14.08
-11.13
-6.22
0.51
8.37
16.28
23.00
27.62
29.77
29.80
28.44
26.39
23.89
20.58
15.81
8.96
-0.02
-10.47
-21.19
-30.76
-37.98
-42.12
-43.01
-41.01
-36.76
-31.10
-24.84
-18.79
-13.63
-9.97
-8.15
-8.23
-9.89
-12.53
-15.33
-17.50
-18.38
-17.56
-14.96
-10.80
-5.58
0.03
5.25
9.38
11.82
12.16
10.16
5.76
-0.80
-8.98
-17.91
-26.57
-34.15
-40.13
-44.43
-47.16
-48.32
-47.63
-44.59
-38.74
-29.96
-18.71
-5.86
7.48
20.30
31.79
41.35
48.46
52.68
53.69
51.49
46.54
39.82
32.59
26.07
21.13
18.10
16.79
16.68
17.31
18.46
20.04
21.93
23.79
25.10
25.28
23.90
20.73
15.93
9.84
2.79
-5.07
-13.67
-22.64
-30.91
-36.77
-38.34
-33.99
-23.23
-7.33
10.88
27.93
40.97
49.09
53.03
54.16
54.25
54.54
55.00
54.79
53.11
49.96
47.05
46.33
48.33
53.14
60.19
67.97
74.77
79.68
83.13
87.91
96.66
109.73
127.19
148.52
171.82
194.25
212.69
224.46
229.30
227.42
217.86
201.73
181.37
158.50
133.91
107.82
72.11
26.50
-13.88
-44.61
-68.81
-89.44
-110.12
-134.02
-162.65
-194.96
-226.14
-251.09
-267.70
-274.09
-269.51
-255.01
-233.93
-211.43
-193.07
-181.77
-177.64
-178.16
-175.77
-161.75
-130.10
-81.61
-24.48
29.12
68.97
89.99
92.84
84.05
70.42
59.00
55.08
58.99
66.03
71.93
76.25
81.09
88.73
95.39
96.63
87.46
64.88
29.51
-14.62
-62.86
-113.50
-153.43
-176.51
-182.19
-176.12
-166.13
-157.48
-150.87
-143.83
-133.49
-118.19
-100.59
-84.34
-72.98
-68.42
-70.58
-77.85
-87.84
-97.49
-102.68
-100.20
-86.99
-62.05
-27.65
10.72
46.08
72.64
88.10
94.22
94.14
91.24
87.35
82.62
76.59
69.38
62.17
56.64
54.06
53.90
54.59
54.27
51.61
46.58
40.24
34.15
29.63
27.27
26.53
26.31
25.43
23.25
19.87
15.98
12.40
9.70
7.94
6.74
5.54
4.00
2.06
0.04
-1.67
-2.85
-3.63
-4.36
-5.49
-7.20
-9.31
-11.38
-12.81
-12.90
-10.99
-6.69
-0.15
7.50
14.33
18.12
17.29
11.90
3.69
-4.50
-10.02
-11.53
-9.46
-5.52
-1.59
1.18
2.71
3.56
4.28
4.96
5.25
4.80
3.62
2.15
1.08
0.95
1.85
3.32
4.64
5.09
4.31
2.52
0.33
-1.47
-2.32
-2.11
-1.18
-0.16
0.37
0.10
-0.92
-2.39
-3.86
-4.91
-5.27
-4.82
-3.67
-2.08
-0.44
0.82
1.43
1.33
0.67
-0.30
-1.38
-2.61
-4.16
-6.25
-8.96
-12.06
-15.10
-17.54
-19.09
-19.75
-19.93
-20.19
-21.02
-22.58
-24.50
-25.88
-25.46
-21.87
-13.94
-1.08
16.51
37.73
60.71
83.21
103.04
118.47
128.51
132.78
131.30
124.16
111.28
92.51
67.97
38.57
6.40
-25.37
-53.00
-73.26
-84.41
-86.64
-81.97
-73.39
-63.88
-55.52
-49.20
-44.88
-42.10
-40.43
-39.64
-39.55
-39.80
-39.68
-38.35
-35.11
-29.85
-23.13
-16.07
-9.87
-5.36
-2.71
-1.54
-1.17
-1.04
-0.90
-0.84
-1.04
-1.69
-2.79
-4.20
-5.70
-7.08
-8.13
-8.72
-8.81
-8.44
-7.72
-6.78
-5.69
-4.37
-2.72
-0.66
1.80
4.42
6.87
8.79
9.92
10.18
9.75
8.97
8.27
8.03
8.47
9.55
10.99
12.31
12.95
12.49
10.66
7.47
3.19
-1.68
-6.49
-10.51
-13.16
-14.20
-13.78
-12.42
-10.75
-9.26
-8.21
-7.56
-7.17
-6.90
-6.64
-6.24
-5.48
-4.05
-1.77
1.32
4.85
8.32
11.26
13.42
14.80
15.57
15.92
16.03
16.02
16.06
16.29
16.81
17.62
18.53
19.24
19.48
19.07
18.04
16.59
14.99
13.48
12.20
11.18
10.36
9.61
8.78
7.72
6.32
4.60
2.65
0.65
-1.18
-2.64
-3.55
-3.79
-3.33
-2.20
-0.48
1.76
4.46
7.64
11.39
15.70
20.46
25.37
29.98
33.74
36.13
36.75
35.46
32.43
28.11
23.14
18.15
13.58
9.57
6.02
2.70
-0.49
-3.51
-6.15
-8.22
-9.70
-10.71
-11.58
-12.64
-14.13
-16.21
-18.89
-22.11
-25.73
-29.54
-33.16
-36.09
-37.70
-37.45
-35.04
-30.59
-24.63
-17.96
-11.41
-5.51
-0.45
3.89
7.76
11.35
14.58
17.23
19.04
19.91
19.96
19.51
18.91
18.35
17.79
16.97
15.55
13.35
10.41
7.09
3.87
1.19
-0.75
-2.07
-3.21
-4.73
-7.05
-10.29
-14.20
-18.29
-22.07
-25.18
-27.50
-29.11
-30.05
-30.27
-29.59
-27.78
-24.72
-20.50
-15.41
-9.89
-4.50
0.32
4.22
7.08
9.03
10.51
12.48
16.51
24.51
37.89
56.70
79.13
101.80
121.04
134.28
140.93
142.23
139.60
133.04
121.10
101.80
74.32
40.44
4.54
-27.58
-50.52
-61.65
-61.41
-52.26
-38.23
-23.85
-12.91
-7.37
-6.99
-9.90
-15.00
-23.20
-36.86
-58.80
-91.08
-134.47
-188.50
-251.60
-321.14
-387.74
-441.42
-471.92
-471.96
-440.45
-383.50
-312.32
-243.26
-181.21
-126.81
-79.27
-37.00
1.03
35.44
67.14
96.97
127.57
162.88
205.46
255.72
312.12
370.44
423.95
464.14
483.18
477.15
447.42
399.52
341.83
283.45
231.05
188.13
154.86
125.28
96.03
65.91
34.47
0.85
-36.63
-79.67
-125.47
-170.50
-208.09
-230.33
-232.59
-216.28
-188.02
-154.86
-125.52
-105.42
-94.91
-89.46
-82.97
-71.41
-54.71
-34.76
-13.07
10.19
36.94
68.53
106.54
152.26
205.94
266.53
331.13
394.16
447.50
482.75
493.58
478.37
440.60
387.20
326.00
263.35
202.79
145.30
90.93
39.69
-8.01
-52.21
-94.11
-136.09
-180.50
-228.17
-277.27
-323.31
-360.28
-383.05
-389.53
-381.46
-363.50
-341.11
-318.34
-296.73
-275.62
-253.59
-229.97
-205.52
-182.08
-161.46
-144.47
-130.68
-118.73
-107.21
-95.21
-82.64
-70.20
-58.89
-49.59
-42.77
-38.28
-35.45
-33.23
-30.65
-27.06
-22.43
-17.40
-13.07
-10.56
-10.59
-13.12
-17.34
-22.11
-26.36
-29.53
-31.69
-33.35
-35.08
-37.06
-38.89
-39.65
-38.57
-35.31
-30.22
-24.36
-19.08
-15.67
-14.98
-17.33
-22.26
-28.74
-34.50
-35.84
-28.21
-7.88
25.78
68.87
113.19
148.93
167.73
165.99
145.84
113.75
77.59
43.75
15.89
-5.02
-16.21
-15.47
-2.17
21.60
51.14
80.95
106.58
125.90
138.72
146.68
151.46
153.90
153.62
149.44
140.25
125.77
106.89
84.96
61.28
36.57
10.72
-16.99
-47.53
-81.81
-120.53
-160.00
-197.89
-230.34
-251.81
-256.57
-241.25
-207.25
-161.17
-112.87
-71.84
-44.22
-30.44
-26.58
-27.39
-28.86
-29.38
-28.97
-27.75
-24.86
-18.99
-9.00
5.90
24.78
45.55
65.47
82.38
95.09
103.52
108.07
109.53
108.61
105.50
100.26
92.83
83.39
72.64
61.76
52.09
44.95
41.31
41.55
46.06
55.06
68.49
85.68
104.76
122.63
135.64
140.83
135.04
118.67
95.10
69.22
45.62
27.03
13.82
4.64
-2.48
-9.11
-15.68
-22.13
-28.30
-34.20
-39.90
-45.28
-49.88
-53.04
-54.15
-52.86
-49.55
-45.24
-41.25
-38.71
-38.20
-39.61
-42.34
-45.53
-48.34
-50.28
-51.20
-51.22
-50.52
-49.29
-47.76
-46.19
-44.90
-44.07
-43.76
-43.74
-43.63
-42.97
-41.40
-38.73
-34.96
-30.19
-24.56
-18.23
-11.39
-4.30
2.70
9.26
15.04
19.81
23.39
25.71
26.78
26.70
25.64
23.90
21.81
19.69
17.79
16.23
15.06
14.20
13.51
12.85
12.00
10.78
8.99
6.52
3.44
0.02
-3.27
-5.89
-7.33
-7.35
-6.00
-3.61
-0.70
2.24
4.85
6.97
8.64
9.93
10.88
11.43
11.47
10.92
9.83
8.38
6.81
5.42
4.35
3.65
3.22
2.91
2.52
1.97
1.20
0.28
-0.74
-1.83
-3.01
-4.31
-5.71
-7.13
-8.40
-9.45
-10.31
-11.14
-12.21
-13.69
-15.54
-17.52
-19.23
-20.21
-20.19
-19.04
-16.89
-14.00
-10.67
-7.22
-3.92
-0.99
1.39
3.15
4.28
4.87
5.07
5.06
4.94
4.74
4.43
3.98
3.40
2.77
2.18
1.70
1.36
1.06
0.72
0.25
-0.38
-1.13
-1.97
-2.85
-3.77
-4.75
-5.81
-6.99
-8.33
-9.91
-11.80
-13.92
-16.06
-17.80
-18.66
-18.21
-16.28
-12.97
-8.63
-3.80
1.04
5.46
9.16
11.99
13.89
14.95
15.29
15.15
14.70
14.10
13.44
12.80
12.21
11.69
11.23
10.77
10.20
9.43
8.38
7.04
5.47
3.80
2.14
0.54
-1.05
-2.75
-4.69
-6.95
-9.53
-12.37
-15.36
-18.31
-20.98
-23.08
-24.33
-24.51
-23.57
-21.62
-18.89
-15.63
-12.04
-8.28
-4.47
-0.76
2.63
5.51
7.72
9.21
10.05
10.39
10.37
10.13
9.77
9.36
8.95
8.59
8.28
7.98
7.62
7.09
6.32
5.26
3.90
2.31
0.56
-1.24
-3.01
-4.63
-6.10
-7.48
-8.93
-10.61
-12.66
-14.99
-17.32
-19.18
-20.06
-19.61
-17.72
-14.59
-10.65
-6.38
-2.21
1.66
5.15
8.29
11.03
13.27
14.86
15.70
15.83
15.45
14.86
14.32
14.00
13.93
14.05
14.30
14.58
14.81
14.88
14.67
14.13
13.26
12.13
10.84
9.46
8.03
6.57
5.07
3.53
1.92
0.19
-1.81
-4.19
-6.94
-9.91
-12.74
-14.97
-16.16
-16.03
-14.59
-12.12
-9.01
-5.70
-2.49
0.46
3.12
5.48
7.46
9.01
10.04
10.59
10.79
10.81
10.78
10.69
10.45
9.90
8.94
7.53
5.72
3.61
1.34
-0.95
-3.12
-5.00
-6.47
-7.48
-8.07
-8.40
-8.60
-8.81
-9.06
-9.37
-9.77
-10.31
-11.14
-12.31
-13.73
-15.12
-16.08
-16.28
-15.56
-14.05
-11.99
-9.68
-7.28
-4.80
-2.17
0.61
3.47
6.19
8.52
10.29
11.43
12.02
12.17
12.05
11.78
11.48
11.23
11.10
11.10
11.17
11.21
11.00
10.38
9.28
7.76
6.06
4.50
3.34
2.63
2.25
1.86
1.09
-0.35
-2.54
-5.43
-8.78
-12.26
-15.42
-17.78
-18.86
-18.38
-16.33
-13.13
-9.43
-5.97
-3.23
-1.36
-0.13
0.87
2.01
3.48
5.30
7.39
9.66
12.01
14.36
16.56
18.47
19.93
20.90
21.33
21.19
20.41
18.85
16.41
13.18
9.39
5.49
1.94
-0.86
-2.67
-3.44
-3.32
-2.54
-1.42
-0.34
0.37
0.44
-0.16
-1.22
-2.31
-2.92
-2.62
-1.21
1.22
4.39
7.91
11.43
14.69
17.57
20.05
22.18
24.12
26.08
28.27
30.85
33.75
36.64
39.00
40.26
40.05
38.39
35.71
32.74
30.18
28.47
27.62
27.24
26.78
25.75
23.93
21.45
18.66
15.94
13.54
11.46
9.50
7.39
4.86
1.79
-1.79
-5.64
-9.37
-12.52
-14.60
-15.27
-14.41
-12.18
-8.95
-5.13
-1.08
2.99
6.98
10.76
14.13
16.73
18.21
18.35
17.23
15.21
12.87
10.73
9.17
8.24
7.70
7.18
6.35
5.05
3.31
1.37
-0.56
-2.35
-4.09
-5.99
-8.31
-11.19
-14.57
-18.21
-21.78
-25.03
-27.86
-30.39
-32.82
-35.33
-37.88
-40.18
-41.73
-42.00
-40.65
-37.66
-33.38
-28.37
-23.23
-18.46
-14.25
-10.55
-7.20
-3.95
-0.66
2.71
6.13
9.55
12.89
16.16
19.44
22.86
26.62
30.81
35.38
40.04
44.31
47.67
49.62
49.90
48.43
45.36
40.93
35.41
29.09
22.24
15.10
7.90
0.83
-5.89
-12.05
-17.40
-21.73
-24.91
-26.95
-27.99
-28.28
-28.02
-27.46
-26.77
-26.14
-25.74
-25.65
-25.91
-26.40
-26.91
-27.17
-27.00
-26.25
-24.93
-23.14
-21.05
-18.82
-16.53
-14.14
-11.58
-8.82
-6.05
-3.62
-2.13
-2.11
-3.96
-7.74
-13.18
-19.75
-26.74
-33.43
-39.27
-43.98
-47.59
-50.44
-52.87
-55.00
-56.52
-56.76
-55.01
-50.92
-44.81
-37.66
-30.77
-25.24
-21.57
-19.46
-17.94
-15.71
-11.33
-3.48
8.78
25.87
47.38
71.95
97.20
120.11
137.83
148.67
152.73
151.96
149.06
146.05
143.17
138.80
130.63
117.38
100.06
81.87
66.79
57.86
55.98
60.01
67.66
76.38
83.51
86.02
80.37
63.34
33.63
-6.67
-51.71
-93.38
-124.00
-139.03
-138.48
-126.36
-108.62
-90.80
-76.36
-66.34
-60.14
-56.62
-55.06
-55.45
-58.02
-62.74
-68.86
-75.10
-79.97
-82.43
-82.12
-79.27
-74.48
-68.33
-61.20
-53.25
-44.51
-34.95
-24.58
-13.43
-1.64
10.50
22.47
33.48
42.64
49.07
52.20
51.85
48.27
42.09
34.18
25.44
16.64
8.19
0.17
-7.67
-15.59
-23.58
-31.02
-36.72
-39.18
-37.19
-30.50
-20.06
-7.93
3.33
11.50
15.32
14.77
10.95
5.63
0.69
-2.33
-2.62
-0.23
4.05
8.95
13.09
15.36
15.11
12.19
6.91
-0.16
-8.32
-16.82
-24.96
-32.20
-38.32
-43.34
-47.57
-51.34
-54.82
-57.90
-60.17
-61.09
-60.27
-57.67
-53.72
-49.22
-45.06
-41.84
-39.75
-38.51
-37.59
-36.50
-34.97
-33.00
-30.83
-28.79
-27.18
-26.17
-25.67
-25.29
-24.33
-22.01
-17.88
-12.06
-5.42
0.65
4.69
5.68
3.36
-1.81
-8.93
-17.07
-25.52
-33.78
-41.48
-48.18
-53.25
-55.97
-55.72
-52.29
-46.09
-38.24
-30.21
-23.39
-18.54
-15.53
-13.48
-11.41
-8.88
-6.25
-4.48
-4.34
-5.79
-7.92
-9.32
-8.70
-4.93
3.39
18.26
41.99
75.69
117.53
161.92
200.72
226.40
235.57
230.86
219.75
210.82
209.49
215.62
224.07
227.99
222.07
204.64
176.98
141.30
99.26
52.27
3.10
-42.84
-78.37
-97.78
-100.44
-92.17
-83.21
-83.18
-96.49
-120.48
-147.78
-171.02
-186.72
-196.22
-203.53
-212.12
-222.89
-234.37
-244.39
-251.48
-254.95
-254.10
-247.29
-232.09
-206.45
-169.71
-123.35
-70.36
-14.17
42.41
97.80
151.77
205.35
260.41
318.67
380.42
443.31
501.97
548.95
576.87
580.38
557.70
510.71
443.87
362.83
273.44
181.37
92.11
10.73
-58.61
-113.19
-151.96
-175.21
-184.04
-180.09
-165.74
-144.72
-122.19
-104.06
-95.48
-99.11
-114.12
-136.69
-161.44
-183.10
-197.62
-202.44
-196.31
-179.25
-152.79
-120.21
-86.29
-56.38
-35.02
-24.74
-25.45
-34.71
-48.50
-62.15
-71.24
-72.41
-64.04
-46.65
-22.71
4.16
30.41
53.66
73.31
90.25
106.19
122.61
140.05
157.70
173.39
184.47
188.61
184.81
173.96
158.45
141.13
124.31
109.07
95.18
81.48
66.29
48.02
25.83
0.24
-26.67
-51.86
-72.72
-88.29
-99.56
-108.45
-116.04
-121.47
-122.46
-117.18
-106.20
-92.75
-81.07
-73.66
-69.50
-64.66
-54.73
-37.83
-15.79
6.64
24.00
32.29
29.99
17.68
-2.74
-28.83
-58.00
-87.53
-114.94
-138.36
-156.89
-170.68
-180.55
-187.36
-191.49
-192.69
-190.38
-184.21
-174.44
-162.01
-148.30
-134.53
-121.49
-109.41
-98.31
-88.33
-79.88
-73.38
-68.75
-65.23
-61.50
-56.40
-49.63
-42.05
-35.38
-31.28
-30.61
-33.01
-37.21
-41.67
-45.18
-47.06
-46.89
-44.28
-38.64
-29.43
-16.44
-0.12
18.42
37.63
55.89
71.82
84.40
92.97
97.16
96.92
92.52
84.68
74.62
64.00
54.77
48.75
47.27
50.77
58.79
70.13
83.24
96.72
109.56
121.30
131.84
141.32
149.68
156.43
160.40
159.74
152.26
136.13
110.72
77.20
38.51
-1.25
-37.77
-67.65
-89.00
-101.66
-106.97
-107.26
-105.06
-102.40
-100.30
-98.43
-95.46
-89.64
-79.62
-65.15
-47.22
-27.68
-8.47
9.13
24.89
39.38
53.27
66.78
79.23
89.33
95.90
98.60
98.19
96.23
94.30
93.15
92.33
90.61
86.77
80.54
72.98
66.08
61.73
60.64
61.73
62.54
60.42
54.05
44.17
33.28
24.28
18.90
16.86
16.50
16.10
15.28
15.26
17.98
24.65
34.79
46.44
57.20
65.56
71.40
75.59
79.11
82.26
84.51
84.99
83.05
78.64
72.32
65.06
58.00
52.26
48.57
46.81
45.66
42.73
35.29
21.44
0.97
-24.52
-52.57
-81.05
-108.85
-135.65
-160.80
-182.46
-197.45
-202.49
-195.96
-179.09
-155.73
-130.80
-108.41
-90.54
-77.11
-67.08
-59.59
-54.53
-52.23
-52.72
-55.26
-58.49
-61.07
-62.29
-62.36
-62.14
-62.64
-64.51
-67.86
-72.36
-77.51
-82.71
-87.36
-90.84
-92.60
-92.22
-89.41
-84.21
-76.83
-67.67
-57.20
-45.93
-34.40
-23.16
-12.74
-3.59
3.99
9.96
14.48
17.91
20.63
22.98
25.16
27.21
29.00
30.30
30.82
30.35
28.82
26.37
23.33
20.15
17.25
14.89
13.12
11.81
10.73
9.64
8.31
6.55
4.18
1.14
-2.44
-6.25
-9.74
-12.30
-13.34
-12.51
-9.76
-5.33
0.34
6.71
13.33
19.87
26.10
31.78
36.69
40.51
43.00
44.06
43.80
42.51
40.53
38.16
35.60
32.99
30.45
28.17
26.33
25.04
24.22
23.61
22.80
21.45
19.36
16.60
13.50
10.44
7.74
5.42
3.22
0.71
-2.48
-6.44
-10.88
-15.22
-18.77
-21.01
-21.67
-20.76
-18.46
-15.05
-10.86
-6.29
-1.74
2.52
6.65
11.31
17.55
26.31
37.79
51.15
64.70
76.80
86.71
95.04
103.35
113.06
124.53
136.66
147.43
154.75
157.22
154.30
145.91
132.08
112.77
88.34
60.09
30.48
2.80
-19.76
-34.98
-42.38
-43.14
-39.61
-34.24
-28.65
-22.86
-15.37
-3.92
13.45
37.44
67.30
101.33
137.66
174.67
210.84
244.16
271.69
289.80
295.11
285.73
261.93
226.04
181.46
131.58
79.08
25.66
-27.61
-80.01
-131.13
-181.04
-230.53
-281.28
-335.69
-396.29
-464.47
-538.99
-614.97
-684.25
-737.36
-766.65
-769.11
-747.41
-708.67
-661.43
-612.60
-565.75
-521.48
-479.09
-438.34
-400.04
-365.29
-334.29
-305.66
-276.72
-244.80
-208.53
-168.34
-126.16
-84.39
-44.60
-6.91
29.93
67.83
108.51
152.94
200.99
251.40
301.71
348.46
387.67
415.82
431.05
433.93
427.29
415.09
400.74
385.97
370.71
354.00
335.23
314.87
294.29
274.83
256.97
240.09
223.05
205.07
186.36
168.06
151.70
138.35
128.14
120.23
113.25
105.94
97.65
88.48
79.15
70.55
63.40
57.89
53.73
50.33
47.09
43.66
40.04
36.56
33.64
31.61
30.50
30.00
29.59
28.83
27.53
25.94
24.61
24.15
24.90
26.73
29.11
31.25
32.54
32.79
32.41
32.32
33.60
37.15
43.27
51.53
60.95
70.29
78.64
85.79
92.36
99.54
108.52
119.85
133.08
146.84
159.39
169.43
176.81
182.61
188.72
196.84
207.47
219.17
228.71
231.83
224.58
204.79
173.12
132.84
88.95
46.69
10.17
-18.33
-38.77
-53.51
-67.31
-86.52
-117.22
-162.44
-219.84
-281.30
-335.06
-369.91
-379.27
-363.15
-326.79
-277.28
-220.33
-159.28
-96.49
-35.59
17.50
56.04
75.62
76.69
64.90
48.94
36.48
31.01
31.06
31.99
29.36
21.71
11.13
1.64
-3.48
-3.76
-1.63
-0.97
-4.83
-13.84
-26.20
-38.96
-49.67
-57.54
-63.35
-68.66
-74.68
-81.63
-88.76
-94.85
-98.77
-99.76
-97.66
-92.76
-85.38
-75.86
-64.44
-51.47
-37.43
-23.06
-9.18
3.53
14.73
24.46
33.04
40.84
48.05
54.62
60.35
64.98
68.48
71.07
73.18
75.18
77.12
78.70
79.28
78.22
75.01
69.48
61.76
52.37
42.24
32.68
25.13
20.71
19.74
21.41
24.12
26.04
25.85
23.15
18.35
12.06
4.62
-4.05
-14.16
-25.51
-37.27
-48.17
-57.07
-63.43
-67.55
-70.26
-72.56
-75.08
-77.94
-80.75
-82.84
-83.55
-82.40
-79.32
-74.65
-69.16
-63.79
-59.22
-55.61
-52.36
-48.32
-42.27
-33.56
-22.68
-11.25
-1.57
4.43
6.15
4.83
3.39
5.28
13.19
27.93
48.08
70.47
91.10
106.16
112.86
109.90
97.96
79.87
60.11
43.52
33.65
31.45
35.03
40.54
43.95
42.78
37.17
29.70
24.16
23.76
29.59
39.96
50.99
58.25
58.57
51.38
38.76
24.14
10.47
-1.22
-12.02
-23.98
-38.55
-55.38
-72.63
-87.96
-99.73
-107.74
-112.99
-116.91
-120.46
-123.73
-126.02
-126.42
-124.37
-120.04
-114.26
-108.12
-102.41
-97.22
-91.93
-85.57
-77.34
-66.99
-54.95
-42.10
-29.47
-17.88
-7.74
0.96
8.46
15.10
21.04
26.31
30.75
34.20
36.65
38.28
39.52
40.87
42.75
45.42
48.83
52.71
56.60
60.00
62.49
63.82
63.99
63.24
61.94
60.42
58.82
57.08
55.00
52.44
49.36
45.83
41.99
37.88
33.42
28.53
23.23
17.74
12.44
7.71
3.87
1.03
-0.88
-2.03
-2.63
-2.98
-3.36
-4.07
-5.31
-7.11
-9.31
-11.56
-13.48
-14.78
-15.29
-15.03
-14.14
-12.80
-11.27
-9.77
-8.44
-7.37
-6.46
-5.60
-4.64
-3.51
-2.30
-1.18
-0.36
0.05
0.07
-0.23
-0.78
-1.64
-2.95
-4.84
-7.30
-10.07
-12.74
-14.90
-16.28
-16.88
-16.78
-16.09
-14.80
-12.81
-10.04
-6.54
-2.48
1.84
6.13
10.09
13.42
15.80
16.93
16.62
14.90
12.11
8.84
5.74
3.35
1.95
1.49
1.68
2.18
2.66
2.96
3.10
3.22
3.46
3.95
4.69
5.62
6.59
7.46
8.07
8.29
8.03
7.26
6.09
4.65
3.16
1.75
0.45
-0.89
-2.54
-4.77
-7.76
-11.41
-15.42
-19.27
-22.36
-24.19
-24.53
-23.43
-21.30
-18.73
-16.29
-14.43
-13.28
-12.71
-12.40
-12.07
-11.51
-10.68
-9.69
-8.69
-7.89
-7.45
-7.42
-7.79
-8.37
-8.89
-9.07
-8.72
-7.83
-6.59
-5.23
-4.00
-3.01
-2.23
-1.55
-0.84
-0.02
0.91
1.88
2.77
3.40
3.61
3.27
2.33
0.88
-0.84
-2.43
-3.44
-3.50
-2.42
-0.36
2.28
4.93
7.12
8.62
9.44
9.80
9.88
9.74
9.26
8.19
6.37
3.80
0.70
-2.64
-5.94
-9.02
-11.79
-14.23
-16.30
-18.02
-19.43
-20.70
-22.07
-23.75
-25.84
-28.21
-30.55
-32.49
-33.75
-34.27
-34.25
-33.99
-33.85
-33.96
-34.22
-34.30
-33.76
-32.23
-29.57
-25.88
-21.48
-16.73
-11.90
-7.07
-2.22
2.68
7.52
12.01
15.79
18.53
20.11
20.64
20.40
19.65
18.58
17.28
15.79
14.22
12.77
11.62
10.81
10.22
9.56
8.52
6.94
4.82
2.35
-0.26
-2.84
-5.26
-7.44
-9.26
-10.71
-11.80
-12.69
-13.51
-14.33
-15.06
-15.42
-15.10
-13.86
-11.65
-8.65
-5.14
-1.46
2.14
5.46
8.41
10.88
12.78
14.06
14.75
14.95
14.87
14.77
14.86
15.24
15.86
16.53
16.98
17.01
16.54
15.57
14.18
12.45
10.43
8.16
5.65
2.94
0.10
-2.76
-5.57
-8.25
-10.81
-13.16
-15.17
-16.56
-17.01
-16.22
-13.98
-10.21
-4.95
1.66
9.32
17.47
25.35
32.11
37.04
39.87
40.87
40.74
40.28
40.05
40.19
40.45
40.37
39.50
37.52
34.24
29.68
24.18
18.57
14.21
12.77
15.70
23.58
35.73
50.23
64.66
76.99
86.37
93.21
98.69
103.85
108.85
112.81
114.28
112.00
105.68
96.12
84.93
73.82
64.00
56.07
50.22
46.63
45.55
46.91
49.66
51.48
49.36
40.86
25.52
5.39
-15.74
-34.04
-47.38
-56.05
-62.04
-67.56
-73.75
-80.29
-86.10
-90.44
-93.46
-96.06
-99.11
-102.78
-106.39
-108.90
-109.49
-107.93
-104.67
-100.45
-95.93
-91.39
-86.64
-81.16
-74.34
-65.78
-55.51
-43.89
-31.35
-17.96
-3.25
13.63
33.39
55.94
80.06
103.47
123.49
137.89
145.54
146.63
142.25
133.67
121.83
107.05
89.36
68.99
46.78
24.30
3.54
-13.71
-26.40
-34.44
-38.66
-40.37
-40.86
-41.00
-41.09
-40.79
-39.54
-36.88
-32.91
-28.43
-24.88
-23.77
-26.06
-31.65
-39.28
-47.04
-53.00
-55.82
-54.88
-50.03
-41.36
-29.10
-14.08
1.95
16.30
26.09
29.38
26.21
18.70
10.08
3.17
-0.93
-3.00
-4.90
-8.26
-13.59
-20.28
-27.35
-34.23
-41.05
-48.32
-56.17
-63.96
-70.35
-73.97
-74.11
-71.08
-65.98
-60.19
-54.86
-50.60
-47.57
-45.64
-44.59
-44.27
-44.45
-44.87
-45.13
-44.81
-43.46
-40.77
-36.62
-31.13
-24.66
-17.74
-10.91
-4.61
0.87
5.43
9.06
11.79
13.66
14.70
15.01
14.78
14.24
13.62
13.09
12.76
12.63
12.70
12.92
13.23
13.56
13.82
13.90
13.78
13.44
12.97
12.41
11.83
11.19
10.39
9.36
8.03
6.43
4.68
2.92
1.27
-0.16
-1.36
-2.35
-3.16
-3.86
-4.56
-5.32
-6.15
-6.97
-7.59
-7.81
-7.50
-6.59
-5.14
-3.28
-1.13
1.17
3.48
5.64
7.51
9.00
10.07
10.81
11.32
11.70
11.97
12.11
12.09
11.92
11.61
11.24
10.82
10.38
9.94
9.49
9.05
8.62
8.17
7.66
7.08
6.42
5.72
4.99
4.18
3.21
1.97
0.34
-1.71
-4.06
-6.55
-8.97
-11.14
-12.97
-14.40
-15.39
-15.87
-15.70
-14.78
-13.09
-10.73
-7.93
-4.97
-2.11
0.50
2.83
4.89
6.67
8.13
9.24
9.99
10.44
10.75
11.05
11.44
11.91
12.38
12.73
12.87
12.78
12.54
12.25
12.00
11.84
11.70
11.52
11.19
10.70
10.09
9.41
8.70
7.97
7.16
6.21
5.11
3.87
2.49
0.98
-0.68
-2.45
-4.23
-5.79
-6.82
-7.06
-6.35
-4.72
-2.40
0.32
3.13
5.81
8.26
10.50
12.53
14.30
15.69
16.51
16.67
16.24
15.39
14.42
13.57
12.98
12.62
12.37
12.08
11.68
11.15
10.54
9.89
9.23
8.55
7.79
6.91
5.84
4.55
3.04
1.30
-0.64
-2.71
-4.85
-6.98
-9.03
-10.99
-12.86
-14.65
-16.36
-17.96
-19.37
-20.48
-21.12
-21.13
-20.37
-18.80
-16.53
-13.78
-10.84
-7.98
-5.32
-2.88
-0.56
1.68
3.84
5.80
7.46
8.70
9.51
9.96
10.13
10.12
10.01
9.88
9.81
9.85
10.03
10.28
10.52
10.64
10.54
10.21
9.67
9.00
8.26
7.47
6.60
5.63
4.52
3.33
2.07
0.82
-0.42
-1.60
-2.71
-3.70
-4.51
-5.10
-5.47
-5.70
-5.96
-6.38
-7.09
-8.07
-9.21
-10.27
-11.05
-11.39
-11.31
-10.97
-10.58
-10.34
-10.32
-10.47
-10.71
-10.99
-11.30
-11.70
-12.29
-13.09
-14.05
-15.06
-15.99
-16.78
-17.45
-18.07
-18.77
-19.63
-20.72
-22.03
-23.51
-25.08
-26.54
-27.63
-28.05
-27.54
-25.96
-23.37
-20.06
-16.41
-12.81
-9.51
-6.62
-4.11
-1.92
-0.06
1.47
2.62
3.44
4.08
4.74
5.59
6.68
7.90
9.04
9.88
10.35
10.52
10.60
10.78
11.15
11.66
12.14
12.43
12.43
12.15
11.68
11.12
10.53
9.94
9.29
8.57
7.77
6.93
6.09
5.25
4.36
3.40
2.40
1.50
0.93
0.94
1.70
3.16
5.16
7.38
9.57
11.56
13.29
14.77
15.99
16.91
17.47
17.60
17.33
16.74
15.95
15.06
14.15
13.26
12.37
11.46
10.52
9.50
8.41
7.23
5.95
4.56
3.07
1.50
-0.10
-1.72
-3.36
-5.04
-6.83
-8.80
-10.99
-13.38
-15.88
-18.34
-20.60
-22.50
-23.87
-24.54
-24.38
-23.31
-21.43
-18.95
-16.21
-13.48
-10.94
-8.61
-6.42
-4.29
-2.24
-0.36
1.23
2.44
3.29
3.88
4.33
4.71
5.03
5.24
5.28
5.11
4.75
4.24
3.64
3.00
2.35
1.66
0.86
-0.13
-1.36
-2.82
-4.45
-6.14
-7.79
-9.39
-10.96
-12.62
-14.47
-16.50
-18.62
-20.54
-21.96
-22.58
-22.25
-20.97
-18.90
-16.30
-13.46
-10.65
-8.02
-5.63
-3.46
-1.48
0.33
1.91
3.15
3.97
4.35
4.40
4.28
4.17
4.15
4.22
4.30
4.32
4.29
4.24
4.20
4.06
3.70
2.99
1.93
0.67
-0.58
-1.68
-2.63
-3.54
-4.59
-5.90
-7.46
-9.18
-10.97
-12.75
-14.43
-15.89
-16.87
-17.08
-16.28
-14.41
-11.64
-8.28
-4.75
-1.38
1.63
4.19
6.32
8.05
9.41
10.39
11.05
11.43
11.66
11.88
12.16
12.52
12.85
13.04
12.99
12.71
12.28
11.83
11.45
11.10
10.70
10.16
9.44
8.59
7.71
6.87
6.07
5.21
4.19
2.94
1.47
-0.15
-1.84
-3.50
-5.02
-6.24
-6.93
-6.82
-5.73
-3.62
-0.72
2.57
5.80
8.58
10.73
12.24
13.23
13.84
14.16
14.24
14.10
13.75
13.23
12.56
11.79
10.87
9.79
8.52
7.10
5.61
4.10
2.60
1.10
-0.48
-2.17
-3.89
-5.45
-6.57
-7.00
-6.64
-5.65
-4.42
-3.46
-3.25
-4.09
-6.01
-8.75
-11.88
-14.90
-17.32
-18.84
-19.31
-18.83
-17.61
-15.94
-14.09
-12.24
-10.47
-8.82
-7.29
-5.88
-4.58
-3.38
-2.24
-1.17
-0.19
0.63
1.25
1.66
1.91
2.04
2.08
1.98
1.64
0.99
0.02
-1.13
-2.28
-3.29
-4.08
-4.69
-5.27
-5.95
-6.82
-7.91
-9.14
-10.36
-11.35
-11.82
-11.46
-10.09
-7.69
-4.50
-0.93
2.56
5.60
8.03
9.86
11.20
12.07
12.50
12.43
11.92
11.09
10.17
9.38
8.83
8.54
8.43
8.42
8.39
8.27
8.03
7.66
7.14
6.48
5.66
4.64
3.40
1.91
0.18
-1.67
-3.55
-5.39
-7.20
-9.09
-11.16
-13.46
-15.94
-18.38
-20.48
-21.92
-22.43
-21.85
-20.24
-17.78
-14.76
-11.48
-8.17
-4.99
-2.04
0.59
2.86
4.70
6.14
7.27
8.21
9.05
9.84
10.55
11.14
11.56
11.80
11.87
11.78
11.58
11.30
10.99
10.65
10.18
9.49
8.45
7.05
5.35
3.54
1.80
0.25
-1.07
-2.19
-3.18
-4.11
-5.04
-5.98
-6.86
-7.52
-7.70
-7.19
-5.89
-3.87
-1.40
1.21
3.74
6.06
8.08
9.74
10.93
11.55
11.59
11.18
10.52
9.86
9.34
9.01
8.84
8.79
8.83
8.93
9.05
9.11
9.07
8.88
8.58
8.23
7.87
7.54
7.19
6.79
6.32
5.79
5.25
4.77
4.37
4.00
3.58
3.05
2.40
1.77
1.33
1.29
1.78
2.85
4.44
6.43
8.64
10.84
12.81
14.35
15.36
15.87
16.02
15.94
15.76
15.50
15.18
14.85
14.60
14.60
14.93
15.65
16.68
17.94
19.32
20.73
22.09
23.26
24.05
24.26
23.75
22.48
20.54
18.13
15.43
12.55
9.50
6.22
2.64
-1.28
-5.44
-9.71
-13.88
-17.78
-21.24
-24.16
-26.46
-28.09
-29.05
-29.36
-29.10
-28.31
-27.05
-25.39
-23.43
-21.32
-19.25
-17.38
-15.78
-14.44
-13.26
-12.14
-11.05
-10.02
-9.13
-8.49
-8.13
-8.02
-8.06
-8.11
-8.00
-7.60
-6.86
-5.79
-4.52
-3.20
-1.97
-0.95
-0.20
0.26
0.43
0.36
0.17
0.04
0.17
0.75
1.82
3.29
4.98
6.66
8.17
9.40
10.30
10.88
11.17
11.20
11.07
10.85
10.60
10.38
10.17
9.90
9.50
8.89
8.04
7.01
5.92
4.90
4.08
3.47
3.03
2.69
2.32
1.88
1.31
0.57
-0.36
-1.51
-2.85
-4.30
-5.65
-6.68
-7.16
-6.99
-6.22
-5.04
-3.70
-2.35
-1.07
0.19
1.49
2.78
3.91
4.67
4.90
4.65
4.12
3.55
3.12
2.85
2.60
2.25
1.74
1.11
0.51
0.05
-0.22
-0.33
-0.41
-0.60
-1.03
-1.83
-3.05
-4.71
-6.77
-9.16
-11.75
-14.34
-16.66
-18.40
-19.26
-19.12
-17.99
-16.11
-13.75
-11.22
-8.71
-6.34
-4.16
-2.18
-0.44
1.00
2.12
2.94
3.51
3.89
4.13
4.21
4.09
3.76
3.22
2.47
1.57
0.51
-0.75
-2.24
-3.99
-5.97
-8.09
-10.30
-12.56
-14.84
-17.11
-19.22
-20.94
-22.01
-22.24
-21.54
-20.00
-17.78
-15.10
-12.15
-9.10
-6.05
-3.09
-0.30
2.27
4.54
6.44
7.86
8.72
9.02
8.86
8.44
8.00
7.77
7.84
8.16
8.56
8.90
9.04
8.93
8.63
8.17
7.59
6.85
5.86
4.53
2.76
0.50
-2.19
-5.18
-8.22
-11.01
-13.25
-14.73
-15.38
-15.25
-14.49
-13.32
-11.97
-10.65
-9.51
-8.68
-8.16
-7.88
-7.72
-7.50
-7.09
-6.40
-5.42
-4.21
-2.82
-1.35
0.11
1.48
2.68
3.61
4.16
4.28
3.89
3.01
1.69
0.04
-1.82
-3.78
-5.77
-7.79
-9.83
-11.91
-13.97
-15.91
-17.60
-18.85
-19.49
-19.40
-18.54
-16.93
-14.69
-12.00
-9.07
-6.14
-3.36
-0.89
1.13
2.61
3.52
3.92
3.99
3.98
4.12
4.58
5.40
6.49
7.69
8.88
9.92
10.77
11.45
11.95
12.33
12.57
12.73
12.85
12.97
13.11
13.25
13.30
13.12
12.57
11.58
10.24
8.77
7.46
6.65
6.58
7.33
8.84
10.92
13.30
15.68
17.80
19.45
20.51
20.92
20.69
19.88
18.60
17.00
15.22
13.34
11.42
9.47
7.51
5.59
3.75
2.05
0.48
-1.06
-2.66
-4.38
-6.22
-8.09
-9.89
-11.58
-13.20
-14.87
-16.73
-18.85
-21.23
-23.79
-26.36
-28.67
-30.45
-31.36
-31.14
-29.67
-26.98
-23.32
-19.05
-14.53
-10.07
-5.87
-2.04
1.37
4.38
7.07
9.62
12.30
15.49
19.54
24.70
30.98
38.17
45.80
53.31
60.16
65.89
70.18
72.74
73.33
71.73
67.81
61.66
53.60
44.18
34.05
23.82
13.95
4.71
-3.81
-11.61
-18.68
-24.94
-30.15
-33.97
-36.08
-36.30
-34.77
-31.90
-28.33
-24.65
-21.31
-18.52
-16.30
-14.58
-13.31
-12.48
-11.99
-11.75
-11.57
-11.34
-11.04
-10.78
-10.77
-11.19
-12.11
-13.43
-14.93
-16.35
-17.54
-18.46
-19.15
-19.71
-20.14
-20.39
-20.34
-19.92
-19.18
-18.25
-17.36
-16.67
-16.31
-16.28
-16.56
-17.01
-17.45
-17.59
-17.08
-15.60
-12.99
-9.32
-4.87
-0.05
4.76
9.30
13.47
17.21
20.46
23.12
25.06
26.26
26.80
26.93
26.95
27.10
27.47
28.02
28.59
28.96
28.96
28.49
27.55
26.20
24.55
22.66
20.61
18.44
16.18
13.87
11.53
9.16
6.75
4.25
1.68
-0.93
-3.51
-6.00
-8.38
-10.68
-12.97
-15.26
-17.49
-19.49
-20.99
-21.71
-21.43
-20.07
-17.74
-14.70
-11.30
-7.90
-4.78
-2.14
-0.11
1.20
1.72
1.45
0.54
-0.76
-2.08
-3.08
-3.56
-3.53
-3.15
-2.63
-2.15
-1.77
-1.45
-1.10
-0.69
-0.26
0.11
0.37
0.48
0.48
0.42
0.37
0.36
0.42
0.57
0.82
1.12
1.37
1.38
0.98
0.14
-1.02
-2.19
-2.99
-3.06
-2.23
-0.55
1.76
4.36
6.93
9.23
11.11
12.55
13.50
13.97
13.95
13.47
12.61
11.51
10.33
9.21
8.20
7.27
6.32
5.22
3.97
2.59
1.21
-0.10
-1.32
-2.50
-3.72
-5.01
-6.36
-7.72
-9.07
-10.41
-11.79
-13.31
-15.01
-16.88
-18.82
-20.63
-22.04
-22.74
-22.45
-21.03
-18.54
-15.25
-11.56
-7.89
-4.56
-1.76
0.46
2.07
3.11
3.63
3.74
3.58
3.29
2.98
2.69
2.38
2.04
1.64
1.24
0.88
0.58
0.36
0.18
0.03
-0.10
-0.20
-0.30
-0.44
-0.69
-1.15
-1.89
-2.98
-4.45
-6.28
-8.30
-10.24
-11.71
-12.37
-12.05
-10.79
-8.87
-6.60
-4.25
-1.95
0.23
2.27
4.01
5.30
5.97
6.04
5.65
5.09
4.57
4.19
3.92
3.64
3.29
2.90
2.54
2.25
2.04
1.80
1.47
1.05
0.56
0.05
-0.49
-1.15
-2.03
-3.16
-4.52
-6.00
-7.56
-9.20
-10.96
-12.83
-14.64
-16.10
-16.80
-16.48
-15.07
-12.76
-9.96
-7.09
-4.51
-2.43
-0.88
0.23
0.99
1.48
1.76
1.85
1.79
1.67
1.61
1.73
2.11
2.75
3.55
4.33
4.89
5.05
4.79
4.19
3.43
2.72
2.17
1.79
1.48
1.09
0.52
-0.25
-1.22
-2.34
-3.57
-4.81
-5.86
-6.46
-6.28
-5.09
-2.86
0.23
3.84
7.56
11.08
14.20
16.81
18.87
20.36
21.26
21.59
21.43
20.92
20.21
19.44
18.73
18.09
17.49
16.82
15.99
14.95
13.65
12.16
10.53
8.87
7.20
5.49
3.68
1.67
-0.63
-3.22
-6.08
-9.11
-12.14
-14.97
-17.32
-18.90
-19.44
-18.81
-17.03
-14.29
-10.93
-7.36
-3.93
-0.92
1.52
3.32
4.48
5.04
5.11
4.81
4.34
3.83
3.41
3.17
3.08
3.07
3.03
2.83
2.40
1.67
0.66
-0.63
-2.12
-3.77
-5.55
-7.48
-9.55
-11.75
-14.06
-16.48
-19.04
-21.75
-24.55
-27.23
-29.36
-30.49
-30.23
-28.50
-25.57
-21.98
-18.33
-15.15
-12.65
-10.88
-9.73
-9.04
-8.61
-8.22
-7.59
-6.43
-4.50
-1.67
2.00
6.30
10.93
15.58
20.03
24.18
28.02
31.54
34.68
37.25
39.02
39.75
39.21
37.30
33.92
29.13
23.03
15.82
7.73
-0.93
-9.85
-18.69
-27.00
-34.28
-39.96
-43.61
-45.01
-44.33
-42.05
-38.79
-35.12
-31.45
-27.95
-24.63
-21.50
-18.60
-16.00
-13.74
-11.74
-9.88
-8.03
-6.20
-4.59
-3.51
-3.23
-3.86
-5.25
-7.07
-8.93
-10.59
-11.97
-13.12
-14.13
-14.99
-15.65
-16.07
-16.22
-16.22
-16.24
-16.41
-16.84
-17.58
-18.65
-20.11
-22.00
-24.35
-27.02
-29.80
-32.35
-34.30
-35.32
-35.17
-33.68
-30.81
-26.58
-21.15
-14.77
-7.77
-0.48
6.77
13.77
20.35
26.44
32.01
37.04
41.47
45.16
47.92
49.57
50.02
49.40
48.01
46.29
44.60
43.15
41.91
40.71
39.38
37.82
36.07
34.21
32.28
30.25
28.04
25.56
22.82
19.97
17.28
15.07
13.60
12.97
13.04
13.40
13.47
12.67
10.64
7.41
3.40
-0.72
-4.25
-6.66
-7.79
-7.78
-6.99
-5.89
-4.89
-4.24
-4.09
-4.44
-5.23
-6.39
-7.78
-9.22
-10.50
-11.40
-11.75
-11.52
-10.78
-9.71
-8.51
-7.34
-6.35
-5.71
-5.58
-6.14
-7.42
-9.26
-11.26
-12.90
-13.70
-13.39
-11.99
-9.74
-7.01
-4.12
-1.29
1.40
3.92
6.26
8.42
10.33
11.90
12.99
13.50
13.41
12.86
12.16
11.69
11.75
12.44
13.63
15.01
16.27
17.27
18.07
18.92
20.04
21.52
23.29
25.20
27.08
28.88
30.64
32.39
34.12
35.70
36.99
37.85
38.21
38.02
37.28
35.95
34.01
31.56
28.83
26.16
23.91
22.29
21.35
20.87
20.56
20.10
19.26
17.96
16.22
14.10
11.68
9.01
6.20
3.35
0.64
-1.75
-3.72
-5.23
-6.40
-7.39
-8.39
-9.53
-10.88
-12.41
-14.07
-15.75
-17.39
-18.87
-20.13
-21.15
-22.02
-22.86
-23.85
-25.12
-26.66
-28.34
-29.88
-30.99
-31.44
-31.09
-29.98
-28.22
-26.05
-23.74
-21.57
-19.82
-18.66
-18.20
-18.41
-19.17
-20.28
-21.49
-22.52
-23.13
-23.12
-22.47
-21.33
-20.00
-18.95
-18.66
-19.54
-21.79
-25.35
-29.78
-34.36
-38.15
-40.21
-39.93
-37.15
-32.26
-25.99
-19.18
-12.48
-6.16
-0.17
5.74
11.85
18.28
25.05
32.05
39.10
45.97
52.35
57.83
61.95
64.26
64.50
62.63
58.88
53.71
47.70
41.38
35.17
29.26
23.64
18.22
12.97
7.96
3.43
-0.39
-3.42
-5.78
-7.77
-9.72
-11.80
-13.91
-15.85
-17.36
-18.34
-18.89
-19.25
-19.79
-20.82
-22.58
-25.08
-28.07
-31.10
-33.60
-35.10
-35.39
-34.61
-33.17
-31.53
-30.07
-28.98
-28.29
-27.98
-28.00
-28.28
-28.64
-28.82
-28.56
-27.64
-25.95
-23.53
-20.49
-16.98
-13.15
-9.18
-5.22
-1.41
2.19
5.61
8.92
12.13
15.14
17.72
19.61
20.61
20.70
20.09
19.08
18.04
17.22
16.75
16.64
16.83
17.29
18.00
19.01
20.28
21.68
23.00
23.97
24.39
24.23
23.58
22.66
21.65
20.67
19.72
18.71
17.55
16.18
14.64
13.01
11.38
9.87
8.57
7.50
6.69
6.14
5.81
5.69
5.72
5.84
5.93
5.86
5.53
4.85
3.82
2.49
0.94
-0.72
-2.38
-3.90
-5.14
-5.92
-6.11
-5.68
-4.70
-3.44
-2.19
-1.22
-0.62
-0.33
-0.15
0.10
0.46
0.83
1.02
0.87
0.35
-0.45
-1.32
-2.08
-2.62
-2.96
-3.19
-3.44
-3.84
-4.45
-5.27
-6.26
-7.34
-8.42
-9.46
-10.49
-11.58
-12.83
-14.30
-16.01
-17.87
-19.66
-21.06
-21.72
-21.37
-19.90
-17.40
-14.18
-10.59
-6.95
-3.45
-0.21
2.68
5.10
6.93
8.08
8.60
8.65
8.48
8.33
8.31
8.39
8.47
8.40
8.08
7.51
6.72
5.78
4.72
3.57
2.29
0.91
-0.57
-2.09
-3.65
-5.23
-6.88
-8.60
-10.40
-12.18
-13.73
-14.80
-15.09
-14.38
-12.63
-9.98
-6.75
-3.30
0.01
2.97
5.44
7.41
8.85
9.78
10.17
10.10
9.70
9.18
8.73
8.48
8.43
8.45
8.34
7.98
7.28
6.31
5.16
3.92
2.65
1.34
-0.05
-1.55
-3.20
-5.01
-7.03
-9.22
-11.54
-13.80
-15.74
-17.03
-17.36
-16.55
-14.59
-11.71
-8.26
-4.63
-1.14
2.03
4.81
7.17
9.04
10.33
11.01
11.14
10.90
10.54
10.25
10.08
9.98
9.84
9.56
9.11
8.47
7.66
6.69
5.57
4.34
3.04
1.66
0.15
-1.59
-3.62
-5.92
-8.38
-10.80
-12.93
-14.56
-15.54
-15.75
-15.18
-13.88
-11.99
-9.70
-7.23
-4.76
-2.44
-0.41
1.25
2.46
3.19
3.48
3.44
3.20
2.89
2.56
2.26
1.99
1.77
1.60
1.43
1.19
0.78
0.15
-0.70
-1.68
-2.68
-3.64
-4.57
-5.56
-6.74
-8.20
-9.94
-11.88
-13.88
-15.72
-17.13
-17.85
-17.70
-16.61
-14.66
-12.04
-9.02
-5.86
-2.78
0.04
2.48
4.52
6.16
7.51
8.68
9.76
10.80
11.79
12.65
13.35
13.86
14.19
14.36
14.39
14.23
13.81
13.05
11.93
10.47
8.76
6.95
5.15
3.43
1.80
0.21
-1.39
-3.07
-4.87
-6.78
-8.76
-10.65
-12.20
-13.10
-13.09
-12.05
-10.09
-7.51
-4.71
-2.04
0.28
2.18
3.70
4.91
5.88
6.61
7.05
7.19
7.03
6.62
6.11
5.61
5.22
5.00
4.93
4.92
4.89
4.74
4.38
3.77
2.88
1.76
0.50
-0.79
-1.99
-3.03
-3.93
-4.74
-5.58
-6.55
-7.70
-8.96
-10.15
-10.95
-11.02
-10.11
-8.18
-5.40
-2.16
1.11
4.00
6.30
7.98
9.14
9.91
10.44
10.75
10.87
10.80
10.60
10.38
10.22
10.14
10.10
10.02
9.81
9.48
9.09
8.72
8.40
8.04
7.48
6.51
5.03
3.09
0.88
-1.38
-3.51
-5.45
-7.21
-8.82
-10.17
-11.07
-11.27
-10.65
-9.21
-7.14
-4.69
-2.12
0.37
2.62
4.46
5.78
6.51
6.68
6.45
5.97
5.44
4.98
4.67
4.56
4.67
4.95
5.28
5.51
5.46
5.02
4.20
3.06
1.75
0.38
-0.98
-2.34
-3.75
-5.25
-6.90
-8.72
-10.71
-12.73
-14.62
-16.15
-17.09
-17.26
-16.55
-15.01
-12.76
-10.01
-6.99
-3.93
-1.06
1.43
3.39
4.75
5.53
5.82
5.79
5.64
5.53
5.53
5.63
5.74
5.75
5.57
5.14
4.48
3.62
2.64
1.60
0.55
-0.50
-1.54
-2.63
-3.84
-5.23
-6.84
-8.69
-10.73
-12.84
-14.83
-16.45
-17.39
-17.39
-16.36
-14.39
-11.76
-8.86
-6.06
-3.60
-1.57
0.06
1.39
2.46
3.25
3.68
3.71
3.38
2.83
2.25
1.83
1.63
1.63
1.70
1.71
1.56
1.21
0.66
-0.06
-0.93
-1.91
-2.95
-4.00
-5.06
-6.18
-7.47
-9.01
-10.82
-12.80
-14.74
-16.36
-17.33
-17.38
-16.35
-14.29
-11.42
-8.08
-4.64
-1.40
1.46
3.86
5.79
7.30
8.45
9.30
9.93
10.41
10.73
10.85
10.75
10.45
10.04
9.66
9.38
9.19
8.98
8.66
8.19
7.64
7.13
6.73
6.44
6.15
5.71
5.02
4.04
2.81
1.39
-0.14
-1.66
-2.98
-3.84
-3.98
-3.24
-1.65
0.50
2.81
4.84
6.34
7.22
7.59
7.61
7.43
7.14
6.76
6.34
5.94
5.68
5.63
5.80
6.06
6.23
6.13
5.66
4.82
3.72
2.47
1.18
-0.16
-1.55
-3.03
-4.58
-6.17
-7.76
-9.32
-10.87
-12.41
-13.88
-15.14
-16.00
-16.25
-15.75
-14.48
-12.49
-9.93
-6.95
-3.73
-0.49
2.51
5.00
6.74
7.65
7.78
7.36
6.72
6.13
5.77
5.67
5.72
5.80
5.78
5.61
5.24
4.67
3.92
2.99
1.95
0.86
-0.25
-1.36
-2.52
-3.78
-5.20
-6.83
-8.64
-10.57
-12.47
-14.15
-15.34
-15.79
-15.30
-13.81
-11.43
-8.44
-5.18
-1.99
0.83
3.14
4.84
6.00
6.71
7.12
7.39
7.63
7.87
8.07
8.18
8.17
8.08
7.98
7.91
7.87
7.73
7.32
6.50
5.19
3.45
1.45
-0.57
-2.44
-4.10
-5.59
-7.09
-8.74
-10.65
-12.76
-14.86
-16.62
-17.67
-17.68
-16.53
-14.26
-11.11
-7.50
-3.84
-0.49
2.32
4.51
6.11
7.17
7.80
8.09
8.15
8.14
8.19
8.36
8.61
8.84
8.89
8.65
8.11
7.33
6.43
5.47
4.50
3.47
2.32
1.00
-0.50
-2.12
-3.81
-5.51
-7.24
-9.03
-10.95
-12.97
-14.94
-16.64
-17.81
-18.21
-17.75
-16.41
-14.28
-11.51
-8.27
-4.78
-1.33
1.80
4.37
6.26
7.46
8.10
8.35
8.38
8.31
8.24
8.22
8.26
8.33
8.36
8.28
8.02
7.58
6.97
6.25
5.44
4.54
3.52
2.40
1.22
0.06
-1.01
-2.01
-3.02
-4.17
-5.55
-7.17
-8.96
-10.76
-12.31
-13.29
-13.38
-12.40
-10.34
-7.39
-3.93
-0.38
2.91
5.72
7.97
9.69
10.94
11.80
12.37
12.74
12.97
13.09
13.12
13.06
12.95
12.84
12.75
12.65
12.45
12.00
11.25
10.16
8.81
7.32
5.78
4.24
2.70
1.12
-0.54
-2.34
-4.31
-6.49
-8.84
-11.26
-13.55
-15.43
-16.61
-16.84
-16.02
-14.16
-11.46
-8.19
-4.69
-1.28
1.75
4.19
5.94
7.03
7.57
7.71
7.59
7.30
6.93
6.52
6.14
5.78
5.44
5.06
4.58
3.99
3.28
2.50
1.66
0.73
-0.34
-1.59
-3.01
-4.57
-6.21
-7.92
-9.72
-11.62
-13.68
-15.82
-17.88
-19.54
-20.43
-20.23
-18.83
-16.37
-13.19
-9.74
-6.40
-3.36
-0.67
1.75
3.91
5.75
7.14
7.97
8.25
8.12
7.83
7.63
7.68
8.00
8.45
8.89
9.13
9.10
8.79
8.19
7.30
6.13
4.70
3.09
1.42
-0.18
-1.66
-3.05
-4.46
-6.04
-7.88
-9.94
-12.03
-13.87
-15.11
-15.44
-14.66
-12.75
-9.89
-6.41
-2.70
0.81
3.79
6.01
7.42
8.09
8.21
7.98
7.62
7.28
6.99
6.69
6.27
5.62
4.70
3.56
2.33
1.19
0.28
-0.35
-0.74
-1.03
-1.39
-1.94
-2.74
-3.77
-4.94
-6.18
-7.38
-8.56
-9.72
-10.93
-12.28
-13.80
-15.42
-16.97
-18.16
-18.66
-18.20
-16.70
-14.28
-11.23
-7.90
-4.61
-1.56
1.17
3.62
5.81
7.78
9.49
10.89
11.96
12.72
13.28
13.79
14.40
15.16
16.00
16.71
17.03
16.73
15.75
14.19
12.29
10.30
8.43
6.77
5.31
3.96
2.64
1.25
-0.29
-2.05
-4.09
-6.41
-8.92
-11.41
-13.54
-14.97
-15.44
-14.87
-13.44
-11.49
-9.44
-7.63
-6.25
-5.34
-4.83
-4.58
-4.49
-4.48
-4.50
-4.54
-4.60
-4.69
-4.78
-4.89
-5.00
-5.13
-5.31
-5.58
-5.96
-6.42
-6.90
-7.33
-7.69
-8.03
-8.46
-9.07
-9.91
-10.92
-12.01
-13.06
-14.02
-14.84
-15.55
-16.08
-16.30
-15.96
-14.80
-12.63
-9.47
-5.51
-1.12
3.31
7.44
11.07
14.14
16.67
18.72
20.35
21.60
22.49
23.06
23.32
23.23
22.74
21.74
20.17
18.00
15.31
12.28
9.15
6.17
3.58
1.49
-0.03
-0.96
-1.30
-1.03
-0.18
1.14
2.63
3.80
4.10
3.07
0.54
-3.27
-7.79
-12.31
-16.23
-19.25
-21.41
-22.98
-24.25
-25.34
-26.25
-26.84
-26.99
-26.70
-26.08
-25.26
-24.31
-23.21
-21.82
-20.01
-17.73
-15.06
-12.21
-9.44
-6.97
-4.91
-3.22
-1.83
-0.62
0.47
1.45
2.31
3.00
3.49
3.80
3.95
3.95
3.84
3.55
2.99
2.06
0.72
-0.92
-2.61
-3.97
-4.63
-4.34
-3.09
-1.01
1.62
4.52
7.48
10.32
12.94
15.21
17.06
18.45
19.47
20.25
20.98
21.80
22.74
23.75
24.67
25.36
25.69
25.62
25.13
24.23
22.95
21.31
19.37
17.16
14.74
12.14
9.35
6.40
3.36
0.33
-2.56
-5.19
-7.55
-9.69
-11.68
-13.55
-15.20
-16.37
-16.80
-16.30
-14.86
-12.71
-10.17
-7.63
-5.36
-3.45
-1.89
-0.58
0.56
1.49
2.12
2.39
2.29
1.97
1.66
1.57
1.83
2.42
3.21
4.02
4.71
5.23
5.54
5.67
5.60
5.36
4.95
4.43
3.83
3.20
2.52
1.71
0.61
-0.90
-2.84
-5.08
-7.28
-9.03
-9.91
-9.70
-8.42
-6.29
-3.64
-0.79
2.05
4.78
7.34
9.70
11.79
13.51
14.82
15.69
16.19
16.40
16.42
16.33
16.20
16.09
16.03
15.98
15.85
15.52
14.84
13.74
12.28
10.60
8.92
7.42
6.20
5.24
4.40
3.51
2.44
1.08
-0.54
-2.32
-4.09
-5.58
-6.51
-6.60
-5.64
-3.59
-0.59
3.05
6.90
10.55
13.69
16.15
17.86
18.82
19.12
18.84
18.17
17.33
16.54
15.94
15.51
15.15
14.69
14.04
13.18
12.23
11.31
10.46
9.62
8.65
7.41
5.81
3.87
1.70
-0.54
-2.73
-4.81
-6.81
-8.88
-11.12
-13.56
-16.04
-18.28
-19.89
-20.56
-20.15
-18.73
-16.52
-13.84
-11.00
-8.25
-5.78
-3.70
-2.06
-0.83
0.08
0.82
1.51
2.16
2.74
3.12
3.22
3.00
2.58
2.08
1.64
1.33
1.13
0.94
0.68
0.27
-0.32
-1.08
-1.98
-3.00
-4.16
-5.47
-6.95
-8.58
-10.30
-12.03
-13.66
-15.09
-16.16
-16.70
-16.55
-15.62
-13.91
-11.59
-8.92
-6.19
-3.66
-1.50
0.24
1.55
2.50
3.18
3.70
4.14
4.54
4.90
5.19
5.37
5.45
5.41
5.28
5.07
4.76
4.35
3.82
3.13
2.27
1.23
-0.01
-1.39
-2.79
-3.98
-4.70
-4.71
-3.93
-2.38
-0.15
2.72
6.23
10.41
15.07
19.67
23.32
25.00
23.96
20.00
13.69
6.09
-1.54
-8.16
-13.15
-16.27
-17.59
-17.41
-16.34
-15.23
-15.14
-16.92
-20.84
-26.28
-32.01
-36.73
-39.85
-41.92
-44.48
-49.24
-57.27
-68.26
-80.73
-92.68
-102.58
-110.00
-115.70
-121.19
-127.91
-136.65
-147.20
-158.51
-169.14
-177.59
-182.69
-183.59
-179.70
-170.61
-156.12
-136.33
-111.65
-82.72
-50.26
-15.00
22.20
60.01
96.32
128.16
152.14
165.40
166.64
156.88
139.37
118.79
99.96
86.56
80.33
81.08
87.08
95.95
105.39
113.69
119.88
123.55
124.68
123.58
120.73
116.72
112.11
107.38
102.89
98.93
95.84
94.00
93.79
95.30
98.15
101.44
103.90
104.35
102.23
97.97
92.98
89.30
88.83
92.60
100.34
110.57
121.20
130.51
137.84
143.78
149.72
157.02
166.08
176.01
184.75
189.85
189.42
182.86
171.04
156.01
140.17
125.39
112.38
100.63
88.75
75.22
59.01
39.83
17.75
-7.03
-34.72
-65.90
-101.25
-141.34
-186.78
-238.56
-297.90
-365.36
-439.17
-513.94
-580.79
-629.48
-651.86
-644.96
-612.00
-560.87
-500.70
-438.61
-378.02
-319.11
-260.63
-201.42
-140.72
-77.50
-10.13
62.78
140.58
218.77
289.14
341.92
369.20
368.12
341.94
298.57
247.49
196.78
151.55
113.93
84.11
61.23
43.65
28.87
13.68
-4.85
-27.98
-54.27
-79.90
-100.09
-111.10
-111.82
-103.95
-90.94
-76.32
-62.34
-49.54
-37.18
-24.12
-9.62
6.31
22.96
39.08
53.14
63.56
69.01
68.96
64.25
57.16
51.05
49.36
54.45
66.67
84.30
104.10
122.54
136.98
146.32
150.91
151.92
150.54
147.50
143.05
137.24
130.35
122.91
115.64
109.11
103.56
98.80
94.30
89.45
83.67
76.65
68.38
59.24
49.91
41.28
34.27
29.63
27.81
28.71
31.61
35.33
38.48
39.97
39.35
36.87
33.16
28.76
23.83
18.18
11.68
4.59
-2.48
-9.06
-15.31
-22.14
-30.72
-41.64
-54.33
-67.13
-78.14
-86.22
-91.56
-95.37
-99.05
-103.34
-107.93
-111.86
-114.19
-114.61
-113.52
-111.69
-109.71
-107.64
-105.10
-101.60
-96.82
-90.76
-83.67
-75.86
-67.52
-58.63
-49.21
-39.49
-30.12
-22.06
-16.23
-12.97
-11.72
-11.07
-9.21
-4.77
2.66
12.37
22.86
32.60
40.64
46.94
52.21
57.50
63.70
71.25
80.06
89.52
98.57
105.94
110.52
111.74
110.11
107.24
105.36
106.35
110.63
116.71
121.55
121.75
114.86
100.29
79.24
53.69
25.29
-5.48
-39.45
-78.25
-123.46
-175.72
-234.01
-295.30
-354.60
-405.72
-442.44
-460.26
-457.58
-436.13
-400.27
-355.41
-306.40
-256.49
-207.00
-157.72
-107.46
-54.94
0.12
55.79
107.41
148.22
171.50
173.42
154.87
121.52
81.73
43.28
11.21
-12.56
-27.90
-34.73
-32.33
-20.28
0.14
25.19
49.58
68.55
79.91
84.55
85.45
85.66
86.58
87.39
85.70
79.12
66.57
49.05
29.45
11.68
-0.55
-5.04
-1.63
7.77
19.91
31.38
39.70
44.00
45.07
44.87
45.68
49.27
56.20
65.61
75.46
83.21
86.71
84.97
78.47
68.91
58.58
49.61
43.37
40.21
39.53
40.03
40.07
38.15
33.32
25.62
16.10
6.47
-1.48
-6.57
-8.62
-8.31
-6.79
-5.19
-4.24
-4.23
-5.11
-6.61
-8.34
-9.81
-10.46
-9.88
-7.96
-5.06
-1.93
0.50
1.49
0.66
-1.88
-5.65
-9.93
-13.99
-17.14
-18.90
-18.96
-17.25
-13.85
-8.96
-2.78
4.49
12.65
21.42
30.35
38.89
46.51
52.78
57.54
60.80
62.72
63.50
63.39
62.76
62.10
62.03
63.28
66.53
72.22
80.36
90.30
100.69
109.67
115.35
116.49
112.95
105.81
96.88
87.94
80.07
73.43
67.52
61.74
55.79
49.61
42.98
35.02
24.18
8.78
-12.07
-37.77
-66.12
-93.86
-117.81
-135.92
-147.85
-154.86
-159.18
-162.99
-167.60
-173.01
-177.91
-180.17
-177.61
-168.82
-153.84
-134.33
-113.21
-93.84
-78.91
-69.55
-64.81
-61.62
-55.40
-41.29
-15.73
22.02
69.01
118.99
164.05
197.11
214.24
215.55
204.62
186.51
165.67
144.80
124.90
106.23
89.26
74.93
64.11
56.70
50.94
43.44
30.10
7.35
-26.90
-72.74
-128.36
-190.46
-254.47
-315.08
-366.50
-403.21
-421.05
-418.82
-399.37
-369.59
-339.02
-316.99
-309.62
-317.89
-336.70
-356.45
-366.33
-357.85
-327.00
-274.46
-203.99
-121.02
-32.06
56.64
139.12
209.52
263.31
299.12
320.28
334.83
352.21
378.13
412.99
451.75
485.63
506.06
508.36
493.25
466.45
434.97
402.91
372.23
343.59
316.80
292.09
270.41
247.49
220.25
194.63
171.51
146.30
116.05
79.54
37.96
-5.13
-44.61
-74.74
-91.90
-97.33
-94.95
-89.84
-87.05
-89.82
-98.85
-112.88
-129.70
-147.53
-166.17
-184.33
-199.29
-207.63
-206.14
-192.73
-167.23
-131.60
-89.09
-44.03
0.71
42.53
78.84
107.05
125.63
134.45
133.84
125.01
109.49
90.60
70.81
51.47
32.81
15.30
-0.30
-14.15
-26.33
-36.98
-44.20
-47.46
-47.33
-45.47
-43.01
-32.41
-8.10
32.04
73.04
106.96
129.10
141.43
143.78
135.85
117.64
88.55
48.89
0.09
-53.51
-108.44
-162.37
-214.63
-264.84
-313.13
-361.14
-410.84
-463.45
-516.37
-564.70
-601.31
-619.17
-613.27
-583.26
-534.33
-475.28
-415.39
-360.46
-312.85
-271.68
-234.82
-200.04
-166.13
-132.53
-99.09
-65.81
-32.53
0.47
32.89
64.46
95.60
127.91
165.10
211.60
270.38
340.83
417.43
490.79
550.22
588.02
595.66
571.53
522.03
459.36
395.88
338.86
289.64
246.07
206.60
171.72
143.41
122.63
107.73
94.68
78.78
56.86
27.94
-6.70
-44.00
-80.69
-114.84
-146.72
-178.57
-213.21
-248.66
-284.20
-318.89
-351.26
-379.11
-399.14
-407.00
-398.44
-371.28
-327.01
-271.74
-216.02
-164.82
-120.37
-82.59
-49.87
-20.79
4.67
25.41
40.03
48.97
55.07
62.23
73.09
87.76
103.84
117.83
127.11
131.76
135.60
140.44
150.50
169.26
197.84
234.20
273.07
306.80
326.97
327.08
304.94
264.36
213.77
163.77
123.40
96.95
82.64
73.85
62.38
42.29
13.17
-20.51
-51.19
-71.07
-74.79
-60.88
-31.85
6.90
48.80
88.04
118.92
136.04
135.11
114.33
76.11
27.60
-20.44
-56.17
-69.18
-55.12
-16.40
39.60
103.73
167.86
226.27
275.49
313.90
341.90
359.26
364.32
354.10
325.22
275.38
204.18
113.09
0.20
-126.29
-249.94
-351.26
-416.04
-440.43
-430.48
-397.72
-354.34
-308.97
-263.91
-218.37
-171.64
-126.02
-86.33
-57.67
-39.99
-29.00
-17.63
0.55
26.17
52.53
67.83
60.79
26.10
-33.17
-106.80
-180.66
-240.90
-278.97
-290.44
-277.60
-247.05
-207.17
-166.24
-131.93
-110.34
-104.72
-114.38
-133.84
-153.74
-162.95
-151.97
-116.30
-57.59
18.03
102.85
189.88
273.24
346.87
404.34
439.83
450.49
438.40
410.56
375.87
341.61
310.53
280.85
248.96
212.87
173.81
135.41
101.22
72.39
47.03
21.57
-7.08
-39.62
-73.89
-105.96
-132.02
-149.91
-159.70
-163.13
-162.61
-160.22
-157.02
-152.81
-146.38
-135.82
-119.12
-94.78
-62.59
-24.11
17.31
57.11
90.53
113.40
122.96
117.88
98.06
64.41
18.42
-38.19
-103.86
-177.21
-256.40
-338.01
-416.08
-482.26
-527.58
-545.23
-533.26
-495.43
-439.79
-375.54
-309.86
-246.23
-184.95
-124.78
-64.66
-4.42
55.66
115.27
174.09
231.15
284.28
330.27
365.93
389.27
400.45
401.62
395.92
386.14
373.80
359.00
341.05
319.16
292.98
262.82
229.58
194.51
159.26
125.74
95.82
70.84
51.31
36.84
26.42
18.82
12.65
6.21
-2.88
-17.76
-41.89
-78.09
-127.44
-188.45
-256.69
-325.32
-386.13
-431.17
-454.64
-454.24
-431.65
-392.05
-342.24
-288.56
-235.30
-184.05
-134.26
-84.23
-32.31
22.12
78.01
132.44
180.93
218.30
240.20
244.61
232.76
209.04
179.81
151.60
129.36
115.52
109.96
110.66
114.87
120.00
124.15
125.94
124.09
116.88
102.14
77.63
41.94
-5.31
-63.63
-131.99
-208.75
-290.79
-372.26
-444.36
-496.71
-520.41
-511.49
-472.54
-411.93
-340.51
-267.66
-198.67
-134.40
-72.83
-11.26
52.02
116.97
181.80
243.15
296.65
337.84
363.60
373.45
369.97
357.89
342.25
326.64
312.35
298.83
284.92
269.98
254.17
237.99
221.52
204.27
185.43
164.64
142.46
120.24
99.64
81.74
66.62
53.37
40.65
27.41
13.46
-0.49
-13.12
-23.19
-30.07
-34.03
-36.08
-37.47
-39.13
-41.34
-43.67
-45.30
-45.50
-43.94
-40.89
-37.06
-33.33
-30.36
-28.49
-27.56
-27.05
-26.23
-24.36
-20.86
-15.47
-8.58
-1.27
5.03
9.11
10.58
10.03
8.94
9.10
11.89
17.67
25.74
34.59
42.73
49.13
53.39
55.98
57.93
60.59
64.64
69.47
73.04
72.58
65.59
50.67
28.88
3.83
-18.58
-32.63
-34.31
-22.33
2.36
36.63
75.24
112.73
144.52
168.79
184.59
191.57
189.15
177.51
156.74
125.82
84.69
34.59
-20.29
-76.35
-131.01
-183.36
-231.74
-275.31
-315.50
-353.83
-391.54
-426.98
-458.87
-486.14
-508.56
-524.13
-520.05
-488.02
-425.42
-357.59
-303.17
-275.61
-274.79
-298.46
-337.12
-378.53
-411.86
-429.22
-418.73
-375.58
-305.43
-220.42
-144.13
-81.68
-29.03
20.02
74.05
137.06
210.00
288.57
364.05
424.59
461.51
469.28
447.89
404.08
348.68
293.54
247.10
213.37
192.40
183.65
183.99
188.06
189.75
183.88
169.30
149.98
133.81
128.11
135.99
152.58
167.76
172.54
164.71
150.36
139.57
139.55
149.44
161.06
163.36
149.51
120.99
86.04
54.13
30.17
12.16
-6.60
-32.34
-66.61
-105.03
-139.51
-162.27
-169.32
-161.78
-144.61
-123.83
-104.15
-87.54
-73.58
-60.79
-48.08
-35.62
-24.76
-17.05
-13.32
-13.05
-14.53
-15.61
-14.68
-11.32
-6.34
-1.36
2.00
2.83
1.23
-1.81
-4.90
-6.87
-7.23
-6.23
-4.72
-3.64
-3.60
-4.69
-6.49
-8.46
-10.17
-11.55
-12.75
-13.93
-15.09
-15.92
-16.00
-15.00
-12.87
-9.87
-6.44
-3.01
0.14
2.89
5.23
7.13
8.55
9.43
9.80
9.75
9.49
9.21
9.06
9.08
9.21
9.34
9.33
9.11
8.67
8.07
7.39
6.72
6.02
5.20
4.11
2.68
0.88
-1.20
-3.45
-5.78
-8.15
-10.52
-12.79
-14.72
-15.99
-16.26
-15.34
-13.27
-10.34
-6.93
-3.45
-0.21
2.58
4.80
6.33
7.13
7.23
6.75
5.93
5.00
4.17
3.55
3.12
2.81
2.53
2.19
1.78
1.34
0.96
0.71
0.62
0.63
0.57
0.18
-0.76
-2.38
-4.63
-7.30
-10.10
-12.71
-14.83
-16.22
-16.69
-16.11
-14.41
-11.61
-7.88
-3.55
0.94
5.08
8.44
10.76
11.95
12.14
11.57
10.52
9.34
8.28
7.54
7.18
7.12
7.17
7.07
6.66
5.87
4.78
3.57
2.41
1.35
0.33
-0.83
-2.30
-4.27
-6.83
-10.02
-13.78
-17.92
-22.13
-25.94
-28.86
-30.47
-30.48
-28.94
-26.14
-22.63
-19.01
-15.80
-13.34
-11.73
-10.86
-10.55
-10.61
-10.91
-11.43
-12.14
-13.00
-13.89
-14.67
-15.25
-15.61
-15.86
-16.16
-16.68
-17.54
-18.75
-20.22
-21.80
-23.36
-24.80
-26.14
-27.47
-28.93
-30.61
-32.57
-34.75
-37.00
-39.07
-40.62
-41.30
-40.80
-38.96
-35.86
-31.88
-27.53
-23.37
-19.77
-16.83
-14.37
-12.03
-9.44
-6.32
-2.58
1.68
6.28
10.98
15.60
19.96
23.88
27.15
29.49
30.67
30.56
29.28
27.19
24.76
22.42
20.39
18.64
16.98
15.19
13.16
10.89
8.44
5.89
3.29
0.73
-1.61
-3.45
-4.42
-4.20
-2.63
0.16
3.82
7.80
11.58
14.74
17.07
18.50
19.11
18.97
18.19
16.92
15.33
13.62
12.02
10.64
9.49
8.45
7.37
6.15
4.81
3.44
2.16
1.05
0.09
-0.79
-1.65
-2.60
-3.72
-5.11
-6.85
-9.03
-11.68
-14.70
-17.78
-20.46
-22.19
-22.45
-20.94
-17.66
-12.95
-7.39
-1.62
3.81
8.55
12.44
15.44
17.58
18.86
19.29
18.94
18.04
16.93
15.94
15.31
15.09
15.11
15.10
14.84
14.21
13.27
12.13
10.88
9.57
8.16
6.58
4.80
2.77
0.51
-2.01
-4.81
-7.85
-11.04
-14.13
-16.79
-18.64
-19.35
-18.71
-16.74
-13.66
-9.85
-5.72
-1.67
1.97
5.01
7.39
9.12
10.26
10.93
11.22
11.25
11.17
11.12
11.24
11.58
12.06
12.51
12.72
12.52
11.88
10.89
9.68
8.39
7.06
5.65
4.08
2.25
0.12
-2.32
-5.05
-8.02
-11.11
-14.13
-16.75
-18.54
-19.09
-18.08
-15.46
-11.47
-6.65
-1.64
3.00
6.89
9.92
12.13
13.63
14.53
14.94
14.98
14.82
14.63
14.60
14.85
15.42
16.29
17.33
18.34
19.08
19.30
18.88
17.80
16.20
14.26
12.17
10.05
7.89
5.69
3.40
1.02
-1.51
-4.28
-7.44
-11.04
-14.89
-18.50
-21.18
-22.27
-21.44
-18.83
-14.98
-10.58
-6.23
-2.24
1.31
4.45
7.14
9.30
10.84
11.79
12.31
12.63
12.93
13.21
13.32
13.04
12.18
10.74
8.85
6.74
4.63
2.60
0.62
-1.41
-3.55
-5.72
-7.73
-9.36
-10.52
-11.28
-11.92
-12.77
-13.99
-15.46
-16.72
-17.15
-16.23
-13.70
-9.80
-5.10
-0.37
3.74
6.86
8.97
10.25
10.95
11.25
11.20
10.80
10.06
9.10
8.13
7.40
7.12
7.46
8.56
10.42
12.91
15.62
17.84
18.64
17.16
12.94
6.14
-2.39
-11.31
-19.20
-24.97
-28.09
-28.69
-27.32
-24.72
-21.48
-17.93
-14.15
-10.12
-5.88
-1.62
2.34
5.65
8.05
9.41
9.72
8.99
7.24
4.58
1.32
-1.95
-4.47
-5.44
-4.40
-1.34
3.20
8.34
13.18
17.03
19.58
20.83
20.99
20.31
19.01
17.28
15.31
13.29
11.43
9.85
8.51
7.25
5.81
3.99
1.78
-0.61
-2.77
-4.29
-4.89
-4.55
-3.48
-1.94
-0.07
2.22
5.19
9.05
13.80
19.07
24.12
27.91
29.36
27.62
22.45
14.51
5.35
-2.95
-8.48
-10.26
-8.59
-4.89
-0.92
2.02
3.67
4.67
5.90
7.79
9.98
11.53
11.56
9.82
6.82
3.55
0.85
-0.98
-2.28
-3.69
-5.67
-8.14
-10.54
-12.04
-12.02
-10.31
-7.23
-3.41
0.43
3.79
6.43
8.38
9.80
10.88
11.75
12.41
12.82
12.93
12.79
12.56
12.43
12.59
13.06
13.72
14.30
14.53
14.21
13.31
11.94
10.26
8.49
6.79
5.28
4.03
3.04
2.29
1.71
1.22
0.69
-0.00
-0.92
-2.08
-3.40
-4.74
-5.91
-6.72
-6.94
-6.45
-5.21
-3.31
-0.95
1.65
4.25
6.69
8.87
10.72
12.20
13.32
14.17
14.90
15.73
16.79
18.08
19.39
20.45
21.03
21.06
20.64
19.95
19.10
18.05
16.59
14.50
11.61
7.98
3.88
-0.28
-4.03
-6.99
-8.97
-10.01
-10.36
-10.35
-10.23
-10.01
-9.46
-8.15
-5.70
-2.03
2.58
7.56
12.30
16.38
19.68
22.28
24.33
25.89
27.01
27.80
28.60
29.90
32.15
35.50
39.70
44.23
48.52
52.13
54.68
55.71
54.58
50.55
43.09
32.19
18.61
3.72
-10.90
-23.97
-34.83
-43.51
-50.50
-56.37
-61.51
-65.92
-69.33
-71.32
-71.56
-69.92
-66.38
-60.84
-53.00
-42.30
-28.15
-10.27
11.06
34.94
60.08
85.23
109.52
132.58
154.36
174.74
193.14
208.47
219.39
224.88
224.80
220.19
213.07
205.81
200.32
197.47
196.82
196.82
195.15
189.14
176.09
153.53
119.83
74.78
20.13
-40.35
-101.52
-158.04
-205.61
-241.83
-266.31
-280.15
-285.10
-282.97
-275.37
-263.79
-249.67
-234.41
-219.18
-204.63
-190.91
-177.74
-164.76
-151.72
-138.66
-125.78
-113.35
-101.48
-90.13
-79.13
-68.33
-57.73
-47.54
-38.06
-29.60
-22.34
-16.28
-11.26
-7.06
-3.46
-0.37
2.20
4.18
5.46
6.04
6.08
5.86
5.76
6.11
7.11
8.73
10.81
13.13
15.50
17.80
19.92
21.72
23.05
23.78
23.86
23.41
22.69
21.98
21.50
21.30
21.30
21.34
21.33
21.25
21.15
21.07
21.00
20.85
20.51
19.94
19.20
18.45
17.85
17.39
16.88
16.03
14.51
12.17
9.11
5.66
2.36
-0.28
-1.82
-2.07
-1.12
0.68
2.87
4.96
6.64
7.75
8.28
8.30
7.85
6.93
5.62
4.08
2.57
1.33
0.47
-0.05
-0.30
-0.26
0.27
1.59
3.90
7.15
10.96
14.85
18.48
21.81
25.15
28.82
32.93
37.10
40.50
42.12
41.17
37.36
31.07
23.24
15.07
7.76
2.14
-1.35
-2.71
-2.22
-0.34
2.39
5.38
8.02
9.80
10.42
9.87
8.47
6.76
5.28
4.39
4.15
4.30
4.47
4.30
3.61
2.46
1.09
-0.18
-1.06
-1.44
-1.42
-1.27
-1.32
-1.92
-3.28
-5.51
-8.52
-12.07
-15.73
-18.97
-21.27
-22.31
-22.02
-20.60
-18.39
-15.66
-12.54
-9.01
-5.10
-0.99
2.96
6.32
8.79
10.31
11.07
11.33
11.32
11.14
10.80
10.30
9.67
9.01
8.42
7.98
7.67
7.39
6.95
6.18
4.94
3.17
0.87
-1.88
-5.00
-8.36
-11.74
-14.85
-17.30
-18.74
-18.90
-17.75
-15.47
-12.38
-8.84
-5.18
-1.63
1.60
4.41
6.70
8.44
9.70
10.59
11.28
11.97
12.77
13.72
14.78
15.83
16.68
17.20
17.31
16.99
16.28
15.21
13.80
12.07
10.05
7.79
5.34
2.75
0.03
-2.82
-5.78
-8.73
-11.47
-13.65
-14.94
-15.01
-13.74
-11.21
-7.73
-3.79
0.16
3.72
6.70
9.05
10.82
12.08
12.92
13.39
13.58
13.57
13.45
13.31
13.15
12.97
12.69
12.25
11.58
10.64
9.38
7.77
5.79
3.46
0.83
-1.97
-4.82
-7.59
-10.26
-12.90
-15.65
-18.62
-21.73
-24.73
-27.14
-28.46
-28.32
-26.67
-23.79
-20.22
-16.51
-13.08
-10.08
-7.42
-4.92
-2.50
-0.26
1.53
2.57
2.75
2.30
1.78
1.87
3.06
5.39
8.35
11.04
12.58
12.48
10.94
8.84
7.45
8.05
11.55
18.25
27.58
37.96
46.85
51.19
48.21
36.41
16.34
-9.36
-36.57
-61.01
-79.50
-90.74
-95.23
-94.42
-89.56
-80.83
-67.21
-47.01
-18.96
16.76
57.97
100.68
140.09
171.87
193.24
203.44
203.55
195.94
183.68
170.00
157.95
149.90
147.06
149.01
153.70
157.98
158.59
153.24
141.12
122.86
99.83
73.21
43.38
9.68
-28.99
-73.03
-121.02
-169.17
-212.03
-244.15
-262.29
-266.69
-261.16
-251.47
-242.90
-238.25
-237.37
-238.11
-238.21
-236.67
-233.79
-230.49
-227.01
-222.30
-214.21
-200.67
-180.83
-155.70
-127.88
-100.17
-74.83
-52.78
-33.40
-14.96
4.48
26.05
49.33
72.37
93.17
109.85
121.53
129.06
134.96
142.62
154.86
172.51
193.85
215.98
234.22
243.05
237.91
217.19
183.51
143.77
107.50
84.18
81.74
102.08
139.74
183.57
220.72
241.05
240.20
220.28
181.17
130.41
78.74
34.64
-0.06
-29.97
-61.52
-97.97
-136.82
-174.87
-207.60
-232.59
-250.03
-261.39
-267.52
-267.95
-259.75
-242.30
-217.97
-190.30
-163.82
-142.11
-125.92
-112.70
-97.82
-77.01
-48.87
-15.44
19.67
52.15
78.68
98.08
111.52
121.49
130.56
139.97
149.56
158.72
166.37
171.22
172.04
167.88
158.36
143.94
125.69
105.18
84.33
64.72
47.34
32.64
20.74
11.48
4.32
-1.86
-8.49
-16.83
-27.34
-39.40
-51.48
-61.86
-69.43
-74.06
-76.46
-77.50
-77.57
-76.40
-73.32
-67.81
-60.07
-50.99
-41.85
-33.75
-27.31
-22.58
-19.37
-17.48
-16.87
-17.60
-19.62
-22.62
-26.03
-29.17
-31.43
-32.53
-32.52
-31.75
-30.74
-29.93
-29.60
-29.84
-30.55
-31.57
-32.78
-34.16
-35.80
-37.82
-40.32
-43.30
-46.62
-49.97
-52.95
-55.15
-56.21
-55.88
-54.05
-50.78
-46.25
-40.78
-34.81
-28.79
-23.13
-18.14
-14.07
-11.05
-9.25
-8.66
-9.23
-10.68
-12.55
-14.35
-15.65
-16.29
-16.34
-16.10
-15.88
-16.00
-16.65
-17.89
-19.66
-21.86
-24.29
-26.81
-29.31
-31.78
-34.32
-37.12
-40.42
-44.39
-49.06
-54.15
-59.06
-63.00
-65.20
-65.15
-62.76
-58.41
-52.71
-46.29
-39.62
-33.00
-26.69
-21.02
-16.40
-13.22
-11.58
-11.19
-11.36
-11.21
-9.98
-7.25
-3.16
1.74
6.69
10.97
14.14
16.01
16.71
16.46
15.52
14.13
12.56
11.05
9.81
8.83
7.95
6.77
4.88
2.03
-1.66
-5.72
-9.40
-11.90
-12.66
-11.46
-8.43
-4.03
1.16
6.62
12.03
17.23
22.23
27.01
31.46
35.32
38.31
40.25
41.17
41.26
40.75
39.78
38.42
36.69
34.69
32.62
30.72
29.07
27.58
25.99
24.01
21.49
18.48
15.16
11.74
8.31
4.83
1.14
-2.92
-7.46
-12.35
-17.26
-21.58
-24.59
-25.55
-23.95
-19.66
-13.02
-4.72
4.37
13.45
21.95
29.63
36.51
42.73
48.35
53.28
57.26
59.96
61.13
60.70
58.84
55.92
52.43
48.80
45.35
42.16
39.12
36.01
32.70
29.18
25.66
22.44
19.72
17.50
15.47
13.21
10.30
6.47
1.65
-4.13
-10.72
-17.83
-25.00
-31.54
-36.66
-39.72
-40.36
-38.68
-35.14
-30.35
-24.82
-18.79
-12.24
-5.03
2.76
10.75
18.08
23.72
26.76
26.98
25.12
22.91
22.44
25.37
32.16
41.83
52.45
61.99
69.23
74.05
77.18
79.37
80.71
80.55
77.87
72.12
63.70
53.98
44.58
36.62
30.20
24.47
18.12
9.97
-0.59
-13.62
-28.81
-45.49
-62.43
-77.47
-87.51
-89.15
-79.79
-58.82
-28.18
8.01
44.57
76.54
100.29
113.92
117.29
111.73
99.74
84.62
69.94
58.78
52.98
52.67
56.34
61.43
65.28
65.89
62.50
55.48
46.08
35.83
26.08
17.62
10.57
4.52
-1.26
-7.42
-14.34
-22.03
-30.25
-38.75
-47.36
-56.10
-64.98
-73.82
-82.16
-89.36
-94.90
-98.72
-101.23
-103.16
-105.19
-107.59
-110.19
-112.46
-113.88
-114.15
-113.32
-111.65
-109.42
-106.85
-103.93
-100.55
-96.47
-91.35
-84.70
-75.97
-64.55
-49.88
-31.42
-8.78
18.26
49.43
83.69
119.01
152.59
181.42
203.01
215.92
219.74
214.50
200.12
176.20
142.71
101.00
54.57
8.92
-29.75
-56.42
-68.89
-68.48
-59.43
-47.43
-37.89
-34.48
-38.45
-48.67
-62.07
-74.46
-81.46
-79.71
-68.05
-48.04
-23.86
-1.08
15.21
22.25
20.62
13.97
7.14
3.92
5.32
9.27
11.99
10.15
2.70
-8.74
-21.06
-31.52
-39.28
-45.40
-51.65
-58.94
-66.42
-72.02
-73.81
-71.42
-66.46
-61.78
-59.97
-61.94
-66.31
-70.05
-69.98
-64.45
-54.17
-41.73
-30.10
-20.79
-12.81
-3.09
11.83
33.69
61.37
91.39
119.56
142.72
159.38
169.35
172.78
169.60
159.80
144.01
123.86
101.32
77.96
54.09
28.92
1.41
-29.06
-62.60
-99.49
-140.58
-186.70
-236.84
-286.64
-328.17
-352.00
-350.66
-321.58
-267.62
-195.03
-110.22
-17.61
80.00
179.29
274.28
356.37
417.06
451.62
461.38
453.14
435.85
416.45
397.45
377.13
351.58
317.60
274.29
222.86
165.21
102.68
35.86
-34.22
-104.67
-170.03
-223.10
-257.27
-269.08
-259.61
-233.96
-199.34
-162.73
-129.57
-103.65
-87.70
-83.73
-92.41
-112.06
-138.20
-164.39
-184.23
-193.45
-190.96
-178.45
-158.98
-135.49
-109.75
-82.30
-52.82
-20.86
13.58
49.60
85.14
117.12
141.86
155.84
156.59
143.32
117.06
80.48
37.22
-8.65
-53.23
-93.23
-126.16
-150.49
-165.53
-171.44
-169.15
-160.42
-147.78
-134.07
-121.78
-112.33
-105.57
-100.10
-94.04
-85.98
-75.59
-63.76
-52.02
-41.89
-34.38
-29.77
-27.89
-28.28
-30.36
-33.34
-36.17
-37.53
-36.13
-31.14
-22.53
-11.12
1.73
14.60
26.45
36.76
45.46
52.76
58.96
64.43
69.49
74.41
79.15
83.42
86.59
87.94
86.90
83.18
76.88
68.36
58.17
46.94
35.25
23.65
12.68
2.72
-6.06
-14.06
-22.31
-32.48
-46.35
-64.95
-87.60
-111.58
-132.52
-145.89
-148.73
-140.94
-125.52
-107.29
-91.02
-79.61
-73.30
-70.20
-67.64
-63.69
-57.92
-51.16
-44.56
-38.67
-33.21
-27.50
-21.27
-15.12
-10.26
-7.54
-6.83
-6.68
-5.11
-0.66
6.70
15.56
23.78
29.54
32.23
32.78
33.63
38.10
49.26
68.56
94.62
123.08
147.96
164.33
170.82
170.38
168.75
171.25
179.80
192.09
203.22
208.45
205.29
193.54
173.86
145.86
107.74
57.59
-4.70
-76.25
-151.50
-223.93
-288.01
-340.33
-379.60
-405.76
-419.14
-419.94
-408.40
-385.28
-352.33
-312.53
-269.78
-228.08
-190.54
-158.57
-131.54
-107.17
-82.50
-54.69
-21.53
18.30
64.91
116.47
168.34
213.05
241.84
247.56
227.94
187.12
134.41
80.66
34.17
-1.62
-27.49
-45.66
-56.93
-59.80
-51.86
-32.36
-3.95
27.75
56.35
77.40
89.76
95.32
97.29
98.22
99.01
99.08
97.19
92.67
85.83
77.94
70.54
64.72
60.59
57.33
53.70
48.67
42.02
34.49
27.50
22.55
20.58
21.66
24.97
29.21
33.07
35.68
36.72
36.35
34.96
32.93
30.55
28.06
25.76
24.01
23.18
23.43
24.64
26.38
28.01
28.95
28.85
27.65
25.54
22.85
19.87
16.84
13.92
11.11
8.35
5.47
2.28
-1.30
-5.15
-8.89
-11.92
-13.60
-13.47
-11.41
-7.69
-2.82
2.55
7.84
12.65
16.72
19.90
22.12
23.34
23.61
23.09
22.04
20.76
19.52
18.46
17.59
16.82
16.02
15.06
13.90
12.59
11.19
9.75
8.30
6.78
5.11
3.13
0.72
-2.19
-5.64
-9.52
-13.57
-17.35
-20.30
-21.83
-21.46
-19.01
-14.68
-9.05
-2.86
3.15
8.46
12.81
16.17
18.61
20.16
20.84
20.67
19.79
18.52
17.27
16.34
15.86
15.69
15.53
15.10
14.25
13.05
11.65
10.22
8.81
7.41
5.91
4.22
2.29
0.10
-2.40
-5.22
-8.26
-11.25
-13.75
-15.21
-15.20
-13.54
-10.38
-6.17
-1.46
3.22
7.48
11.09
13.90
15.81
16.79
16.86
16.14
14.88
13.36
11.89
10.70
9.92
9.56
9.50
9.53
9.36
8.82
7.82
6.46
4.96
3.54
2.30
1.17
-0.02
-1.50
-3.44
-5.84
-8.58
-11.37
-13.85
-15.59
-16.20
-15.44
-13.24
-9.76
-5.38
-0.64
3.88
7.73
10.59
12.38
13.19
13.21
12.63
11.66
10.46
9.22
8.12
7.34
6.95
6.87
6.89
6.72
6.18
5.22
4.01
2.79
1.75
0.94
0.24
-0.56
-1.68
-3.27
-5.34
-7.82
-10.56
-13.33
-15.77
-17.42
-17.83
-16.66
-13.84
-9.62
-4.56
0.69
5.49
9.35
12.03
13.44
13.70
13.06
11.83
10.38
9.03
8.01
7.38
7.11
7.01
6.87
6.51
5.89
5.04
4.14
3.33
2.71
2.24
1.81
1.22
0.32
-0.99
-2.75
-4.91
-7.37
-9.87
-12.04
-13.45
-13.71
-12.64
-10.28
-6.89
-2.84
1.47
5.65
9.38
12.41
14.54
15.74
16.05
15.67
14.86
13.86
12.87
12.02
11.35
10.84
10.40
9.91
9.21
8.22
6.90
5.36
3.73
2.20
0.86
-0.29
-1.38
-2.59
-4.07
-5.88
-7.90
-9.91
-11.58
-12.56
-12.57
-11.39
-9.02
-5.62
-1.50
2.88
7.05
10.63
13.40
15.26
16.27
16.56
16.27
15.55
14.54
13.35
12.14
11.06
10.24
9.74
9.47
9.25
8.87
8.19
7.23
6.12
5.04
4.12
3.32
2.42
1.13
-0.82
-3.49
-6.75
-10.21
-13.40
-15.79
-17.01
-16.86
-15.33
-12.58
-8.92
-4.71
-0.34
3.75
7.21
9.77
11.31
11.84
11.51
10.54
9.16
7.63
6.16
4.92
3.98
3.34
2.91
2.55
2.11
1.49
0.64
-0.44
-1.64
-2.88
-4.08
-5.20
-6.31
-7.52
-8.98
-10.76
-12.85
-15.04
-17.00
-18.36
-18.74
-17.95
-15.95
-12.94
-9.26
-5.35
-1.60
1.64
4.17
5.89
6.79
6.98
6.63
5.91
5.01
4.04
3.11
2.26
1.55
1.03
0.70
0.53
0.42
0.28
0.05
-0.28
-0.69
-1.15
-1.64
-2.19
-2.90
-3.86
-5.16
-6.80
-8.68
-10.57
-12.15
-13.10
-13.19
-12.30
-10.47
-7.86
-4.71
-1.33
1.96
4.85
7.10
8.57
9.24
9.23
8.75
8.05
7.38
6.89
6.64
6.58
6.59
6.51
6.24
5.74
5.05
4.25
3.42
2.64
1.95
1.41
1.00
0.68
0.29
-0.38
-1.53
-3.29
-5.54
-7.96
-10.02
-11.16
-10.95
-9.26
-6.32
-2.59
1.37
5.06
8.15
10.54
12.19
13.13
13.34
12.85
11.74
10.23
8.62
7.22
6.23
5.64
5.31
4.97
4.45
3.68
2.73
1.74
0.81
-0.06
-0.97
-2.07
-3.47
-5.18
-7.21
-9.52
-12.01
-14.55
-16.84
-18.53
-19.20
-18.57
-16.60
-13.48
-9.60
-5.38
-1.21
2.66
6.04
8.81
10.85
12.10
12.59
12.48
12.00
11.37
10.77
10.27
9.87
9.52
9.14
8.69
8.07
7.26
6.22
5.00
3.70
2.41
1.18
-0.01
-1.28
-2.73
-4.51
-6.64
-9.09
-11.65
-14.06
-15.92
-16.84
-16.50
-14.76
-11.72
-7.69
-3.12
1.50
5.75
9.31
11.97
13.64
14.36
14.27
13.59
12.57
11.43
10.37
9.51
8.93
8.60
8.41
8.14
7.61
6.67
5.35
3.80
2.25
0.83
-0.43
-1.62
-2.87
-4.29
-5.97
-7.94
-10.18
-12.58
-14.92
-16.80
-17.81
-17.56
-15.91
-13.00
-9.21
-5.07
-1.09
2.40
5.22
7.30
8.65
9.27
9.25
8.71
7.85
6.91
6.07
5.41
4.86
4.34
3.73
2.99
2.15
1.26
0.35
-0.57
-1.52
-2.52
-3.61
-4.82
-6.16
-7.64
-9.23
-10.93
-12.71
-14.54
-16.30
-17.79
-18.74
-18.85
-17.91
-15.86
-12.89
-9.31
-5.53
-1.90
1.30
3.89
5.81
7.04
7.63
7.67
7.28
6.62
5.86
5.11
4.45
3.87
3.32
2.72
2.03
1.25
0.40
-0.43
-1.20
-1.83
-2.35
-2.82
-3.38
-4.15
-5.27
-6.78
-8.66
-10.81
-13.11
-15.38
-17.45
-19.07
-19.94
-19.80
-18.46
-15.99
-12.65
-8.86
-5.09
-1.69
1.11
3.23
4.67
5.43
5.55
5.11
4.29
3.32
2.46
1.87
1.60
1.60
1.73
1.85
1.86
1.67
1.23
0.56
-0.31
-1.30
-2.29
-3.19
-3.95
-4.66
-5.45
-6.51
-7.91
-9.60
-11.33
-12.68
-13.24
-12.68
-10.93
-8.14
-4.63
-0.74
3.19
6.95
10.36
13.26
15.49
16.93
17.54
17.46
16.90
16.14
15.39
14.79
14.31
13.92
13.54
13.09
12.57
11.94
11.17
10.25
9.14
7.83
6.29
4.53
2.54
0.38
-1.89
-4.21
-6.56
-8.92
-11.23
-13.35
-15.02
-15.88
-15.60
-14.00
-11.12
-7.26
-2.88
1.52
5.51
8.84
11.43
13.31
14.53
15.17
15.27
14.94
14.32
13.61
13.01
12.65
12.49
12.40
12.16
11.61
10.71
9.52
8.20
6.86
5.56
4.23
2.76
1.03
-1.01
-3.37
-5.97
-8.71
-11.46
-14.07
-16.33
-17.95
-18.63
-18.10
-16.21
-13.06
-8.94
-4.30
0.37
4.65
8.26
11.09
13.14
14.47
15.18
15.36
15.15
14.70
14.18
13.73
13.44
13.27
13.10
12.76
12.10
11.08
9.76
8.22
6.59
4.96
3.32
1.68
-0.00
-1.73
-3.49
-5.32
-7.28
-9.42
-11.75
-14.17
-16.41
-18.08
-18.79
-18.20
-16.21
-12.93
-8.70
-3.99
0.68
4.86
8.27
10.79
12.50
13.55
14.15
14.44
14.54
14.55
14.54
14.53
14.51
14.40
14.09
13.47
12.53
11.32
9.99
8.65
7.36
6.13
4.89
3.58
2.16
0.64
-0.94
-2.58
-4.26
-6.05
-8.04
-10.29
-12.78
-15.35
-17.68
-19.39
-20.11
-19.59
-17.78
-14.84
-11.06
-6.81
-2.49
1.57
5.09
7.84
9.75
10.81
11.16
11.00
10.57
10.09
9.69
9.44
9.28
9.13
8.90
8.50
7.96
7.32
6.67
6.00
5.23
4.25
2.96
1.38
-0.33
-2.01
-3.53
-4.89
-6.16
-7.44
-8.77
-10.16
-11.60
-13.11
-14.70
-16.31
-17.72
-18.55
-18.37
-16.87
-14.02
-10.11
-5.64
-1.21
2.70
5.78
7.96
9.27
9.85
9.82
9.30
8.42
7.35
6.28
5.40
4.82
4.54
4.47
4.48
4.49
4.47
4.40
4.28
4.09
3.77
3.28
2.63
1.86
1.04
0.20
-0.69
-1.66
-2.80
-4.16
-5.78
-7.63
-9.61
-11.55
-13.19
-14.24
-14.40
-13.49
-11.41
-8.33
-4.64
-0.83
2.57
5.21
7.00
8.03
8.55
8.78
8.83
8.75
8.53
8.19
7.79
7.34
6.85
6.28
5.62
4.90
4.22
3.68
3.28
2.90
2.35
1.44
0.11
-1.53
-3.25
-4.79
-6.02
-6.98
-7.87
-8.97
-10.49
-12.51
-14.89
-17.31
-19.31
-20.41
-20.25
-18.64
-15.66
-11.65
-7.11
-2.58
1.52
4.91
7.53
9.38
10.57
11.21
11.45
11.46
11.40
11.35
11.31
11.20
10.92
10.40
9.67
8.82
7.93
7.02
6.06
4.98
3.78
2.50
1.25
0.12
-0.92
-1.95
-3.13
-4.65
-6.60
-8.97
-11.57
-14.11
-16.15
-17.26
-17.13
-15.60
-12.80
-9.03
-4.74
-0.40
3.59
6.96
9.55
11.30
12.29
12.65
12.59
12.32
12.01
11.75
11.55
11.37
11.12
10.72
10.11
9.23
8.10
6.77
5.31
3.82
2.35
0.95
-0.40
-1.74
-3.10
-4.55
-6.11
-7.78
-9.55
-11.36
-13.12
-14.64
-15.67
-15.89
-15.03
-12.91
-9.59
-5.37
-0.72
3.85
7.95
11.34
13.96
15.83
17.02
17.62
17.75
17.58
17.27
16.99
16.84
16.85
16.97
17.12
17.19
17.07
16.68
16.02
15.14
14.16
13.19
12.25
11.21
9.74
7.38
3.63
-1.93
-9.43
-18.62
-28.78
-38.84
-47.53
-53.73
-56.65
-56.12
-52.46
-46.41
-38.85
-30.55
-22.12
-13.97
-6.37
0.42
6.16
10.65
13.79
15.68
16.54
16.68
16.38
15.85
15.16
14.33
13.32
12.12
10.75
9.25
7.64
5.90
3.97
1.78
-0.64
-3.19
-5.69
-8.04
-10.22
-12.37
-14.63
-17.04
-19.39
-21.24
-22.12
-21.69
-19.88
-16.98
-13.40
-9.62
-5.97
-2.69
0.11
2.28
3.74
4.43
4.41
3.90
3.15
2.43
1.91
1.61
1.45
1.32
1.10
0.72
0.19
-0.43
-1.08
-1.76
-2.50
-3.45
-4.73
-6.44
-8.52
-10.82
-13.11
-15.21
-16.99
-18.41
-19.40
-19.83
-19.53
-18.34
-16.22
-13.28
-9.79
-6.07
-2.43
0.86
3.59
5.60
6.80
7.20
6.91
6.15
5.18
4.23
3.43
2.79
2.27
1.83
1.44
1.11
0.81
0.47
0.04
-0.55
-1.25
-1.97
-2.64
-3.28
-4.03
-5.12
-6.71
-8.80
-11.16
-13.42
-15.15
-16.01
-15.82
-14.54
-12.28
-9.27
-5.82
-2.28
1.06
3.89
6.06
7.50
8.25
8.48
8.35
8.05
7.70
7.34
6.96
6.55
6.15
5.82
5.63
5.59
5.62
5.60
5.37
4.83
3.92
2.72
1.30
-0.29
-2.03
-3.99
-6.24
-8.76
-11.37
-13.70
-15.25
-15.59
-14.50
-12.04
-8.56
-4.52
-0.38
3.52
6.99
9.89
12.12
13.58
14.21
14.10
13.41
12.43
11.46
10.69
10.20
9.93
9.71
9.36
8.74
7.81
6.64
5.34
4.06
2.87
1.77
0.65
-0.68
-2.41
-4.65
-7.41
-10.53
-13.70
-16.52
-18.54
-19.41
-18.89
-16.99
-13.88
-9.91
-5.49
-1.05
3.08
6.64
9.49
11.58
12.91
13.55
13.60
13.24
12.65
12.08
11.68
11.50
11.46
11.34
10.94
10.13
8.90
7.41
5.83
4.31
2.89
1.47
-0.07
-1.85
-3.96
-6.42
-9.17
-12.08
-14.93
-17.36
-18.98
-19.39
-18.31
-15.70
-11.76
-6.89
-1.60
3.61
8.35
12.40
15.61
17.93
19.29
19.71
19.28
18.24
16.94
15.76
14.93
14.54
14.44
14.39
14.14
13.51
12.45
10.97
9.15
7.06
4.73
2.24
-0.34
-2.93
-5.43
-7.83
-10.17
-12.61
-15.28
-18.20
-21.12
-23.51
-24.68
-24.05
-21.39
-16.91
-11.16
-4.89
1.24
6.76
11.39
14.97
17.43
18.80
19.23
18.99
18.47
17.99
17.72
17.65
17.61
17.40
16.89
16.08
15.05
13.90
12.68
11.34
9.81
8.02
5.97
3.72
1.40
-0.87
-2.98
-4.90
-6.67
-8.40
-10.22
-12.27
-14.61
-17.16
-19.69
-21.77
-22.92
-22.73
-20.97
-17.72
-13.28
-8.15
-2.89
2.05
6.32
9.74
12.21
13.76
14.46
14.50
14.06
13.41
12.73
12.17
11.81
11.61
11.46
11.23
10.76
9.99
8.91
7.60
6.15
4.66
3.14
1.54
-0.23
-2.22
-4.41
-6.65
-8.78
-10.60
-12.05
-13.18
-14.20
-15.39
-16.97
-18.98
-21.22
-23.25
-24.54
-24.60
-23.16
-20.24
-16.10
-11.23
-6.14
-1.31
2.88
6.19
8.55
9.97
10.59
10.56
10.11
9.45
8.83
8.41
8.24
8.26
8.26
8.04
7.50
6.68
5.74
4.89
4.21
3.65
3.01
2.09
0.79
-0.87
-2.77
-4.75
-6.66
-8.44
-10.05
-11.52
-12.92
-14.32
-15.77
-17.26
-18.67
-19.76
-20.18
-19.57
-17.68
-14.48
-10.20
-5.34
-0.51
3.70
6.88
8.88
9.80
9.89
9.46
8.72
7.80
6.72
5.55
4.38
3.36
2.63
2.23
2.04
1.85
1.44
0.71
-0.31
-1.50
-2.66
-3.71
-4.64
-5.52
-6.39
-7.27
-8.21
-9.26
-10.53
-12.11
-14.02
-16.05
-17.84
-18.91
-18.86
-17.47
-14.76
-11.01
-6.58
-1.85
2.86
7.31
11.29
14.61
17.11
18.71
19.47
19.59
19.31
18.84
18.33
17.80
17.26
16.70
16.15
15.63
15.09
14.45
13.58
12.40
10.87
9.05
7.02
4.88
2.67
0.41
-1.96
-4.50
-7.26
-10.28
-13.48
-16.66
-19.49
-21.55
-22.45
-21.95
-20.05
-16.95
-12.97
-8.47
-3.75
0.93
5.37
9.33
12.58
14.91
16.24
16.60
16.19
15.32
14.30
13.36
12.66
12.21
11.92
11.63
11.20
10.49
9.46
8.09
6.40
4.43
2.25
-0.09
-2.48
-4.82
-7.04
-9.18
-11.36
-13.75
-16.42
-19.25
-21.90
-23.80
-24.36
-23.17
-20.15
-15.58
-10.00
-4.06
1.69
6.87
11.24
14.70
17.22
18.81
19.56
19.65
19.30
18.71
18.04
17.38
16.75
16.17
15.59
14.88
13.91
12.52
10.68
8.48
6.14
3.88
1.82
-0.03
-1.76
-3.50
-5.35
-7.39
-9.71
-12.37
-15.34
-18.46
-21.33
-23.44
-24.22
-23.30
-20.59
-16.33
-11.05
-5.37
0.15
5.11
9.30
12.67
15.20
16.91
17.85
18.12
17.91
17.41
16.81
16.19
15.55
14.82
13.95
12.91
11.72
10.39
8.92
7.31
5.62
3.89
2.16
0.44
-1.29
-3.11
-5.03
-7.01
-8.97
-10.90
-12.86
-14.96
-17.30
-19.85
-22.38
-24.49
-25.68
-25.52
-23.80
-20.55
-16.09
-10.92
-5.60
-0.62
3.65
7.01
9.40
10.85
11.48
11.46
11.00
10.34
9.71
9.24
8.97
8.79
8.54
8.06
7.26
6.14
4.79
3.31
1.81
0.35
-1.08
-2.49
-3.91
-5.36
-6.80
-8.20
-9.49
-10.71
-11.91
-13.22
-14.71
-16.41
-18.25
-20.06
-21.59
-22.54
-22.63
-21.59
-19.31
-15.83
-11.39
-6.40
-1.40
3.08
6.63
9.00
10.18
10.38
9.92
9.16
8.38
7.73
7.23
6.83
6.46
6.10
5.76
5.45
5.20
4.96
4.67
4.28
3.73
2.98
2.02
0.81
-0.62
-2.25
-3.99
-5.72
-7.31
-8.72
-9.98
-11.22
-12.57
-14.10
-15.71
-17.11
-17.87
-17.56
-15.88
-12.79
-8.53
-3.56
1.55
6.31
10.33
13.45
15.65
17.02
17.71
17.88
17.69
17.30
16.86
16.47
16.12
15.79
15.36
14.77
14.01
13.13
12.20
11.28
10.29
9.13
7.65
5.74
3.49
1.10
-1.14
-3.02
-4.50
-5.77
-7.20
-9.11
-11.62
-14.53
-17.34
-19.46
-20.35
-19.74
-17.68
-14.42
-10.35
-5.86
-1.30
3.05
6.93
10.13
12.50
13.96
14.58
14.51
13.95
13.14
12.23
11.35
10.57
9.93
9.44
9.08
8.76
8.38
7.82
6.99
5.89
4.55
3.03
1.42
-0.27
-2.05
-3.95
-6.02
-8.28
-10.73
-13.33
-15.98
-18.50
-20.65
-22.05
-22.31
-21.16
-18.52
-14.60
-9.85
-4.82
0.02
4.32
7.94
10.79
12.88
14.24
14.94
15.12
14.96
14.61
14.22
13.87
13.60
13.39
13.20
12.94
12.52
11.82
10.82
9.50
7.91
6.04
3.91
1.58
-0.87
-3.28
-5.59
-7.80
-10.06
-12.60
-15.53
-18.79
-22.02
-24.69
-26.19
-26.10
-24.24
-20.76
-16.07
-10.67
-5.09
0.25
5.06
9.16
12.43
14.80
16.25
16.87
16.84
16.43
15.86
15.30
14.81
14.34
13.85
13.29
12.70
12.12
11.56
10.97
10.25
9.27
7.95
6.23
4.16
1.84
-0.59
-2.97
-5.23
-7.36
-9.46
-11.70
-14.20
-16.92
-19.61
-21.83
-23.07
-22.93
-21.21
-18.01
-13.65
-8.58
-3.27
1.87
6.47
10.28
13.12
14.95
15.86
16.06
15.81
15.34
14.83
14.38
14.02
13.74
13.55
13.42
13.28
13.05
12.60
11.82
10.63
9.03
7.07
4.84
2.46
0.02
-2.38
-4.71
-6.94
-9.08
-11.15
-13.17
-15.22
-17.36
-19.63
-21.98
-24.21
-25.94
-26.70
-26.08
-23.87
-20.19
-15.48
-10.37
-5.45
-1.15
2.32
4.92
6.69
7.72
8.07
7.85
7.26
6.54
5.91
5.54
5.44
5.55
5.70
5.78
5.73
5.53
5.21
4.75
4.12
3.26
2.16
0.86
-0.52
-1.88
-3.14
-4.29
-5.38
-6.48
-7.65
-8.94
-10.38
-11.93
-13.47
-14.80
-15.61
-15.59
-14.49
-12.19
-8.77
-4.50
0.18
4.76
8.75
11.76
13.66
14.52
14.58
14.15
13.49
12.72
11.91
11.07
10.24
9.50
8.91
8.49
8.19
7.91
7.53
6.99
6.23
5.26
4.09
2.76
1.30
-0.25
-1.85
-3.49
-5.15
-6.82
-8.50
-10.21
-11.99
-13.87
-15.81
-17.64
-19.03
-19.55
-18.82
-16.63
-13.08
-8.56
-3.65
1.05
5.12
8.32
10.63
12.11
12.84
12.93
12.51
11.73
10.81
9.91
9.14
8.50
7.96
7.44
6.90
6.31
5.65
4.91
4.07
3.07
1.88
0.48
-1.14
-2.95
-4.90
-6.93
-9.03
-11.20
-13.46
-15.78
-18.04
-20.00
-21.32
-21.68
-20.81
-18.63
-15.24
-10.97
-6.26
-1.58
2.69
6.33
9.26
11.52
13.11
14.04
14.30
13.97
13.21
12.31
11.49
10.89
10.52
10.23
9.85
9.21
8.27
7.02
5.56
3.96
2.29
0.57
-1.24
-3.18
-5.28
-7.52
-9.84
-12.18
-14.49
-16.76
-18.94
-20.85
-22.19
-22.58
-21.70
-19.40
-15.83
-11.38
-6.60
-2.03
1.90
4.95
7.07
8.32
8.85
8.82
8.37
7.68
6.94
6.29
5.82
5.53
5.34
5.13
4.81
4.34
3.71
2.93
1.99
0.89
-0.37
-1.80
-3.36
-5.03
-6.76
-8.55
-10.37
-12.22
-14.07
-15.87
-17.56
-18.93
-19.70
-19.52
-18.15
-15.53
-11.90
-7.71
-3.48
0.35
3.52
5.97
7.74
8.92
9.53
9.60
9.13
8.18
6.88
5.47
4.18
3.24
2.78
2.75
2.93
3.03
2.82
2.19
1.24
0.13
-1.00
-2.09
-3.21
-4.45
-5.90
-7.52
-9.29
-11.15
-13.05
-14.96
-16.68
-17.96
-18.41
-17.75
-15.85
-12.88
-9.18
-5.22
-1.35
2.17
5.23
7.76
9.70
10.96
11.47
11.28
10.54
9.52
8.50
7.70
7.26
7.15
7.27
7.47
7.62
7.64
7.52
7.26
6.87
6.34
5.59
4.58
3.28
1.72
-0.05
-1.96
-3.99
-6.16
-8.46
-10.79
-12.87
-14.30
-14.66
-13.64
-11.20
-7.61
-3.33
1.11
5.27
8.84
11.68
13.75
15.00
15.46
15.18
14.35
13.19
11.97
10.90
10.07
9.49
9.05
8.59
7.95
7.03
5.85
4.52
3.16
1.86
0.63
-0.60
-1.96
-3.55
-5.45
-7.72
-10.37
-13.31
-16.38
-19.20
-21.29
-22.12
-21.36
-18.92
-15.06
-10.28
-5.19
-0.33
3.92
7.38
10.02
11.88
13.08
13.71
13.87
13.65
13.15
12.48
11.77
11.12
10.61
10.22
9.83
9.26
8.36
7.07
5.44
3.62
1.79
0.09
-1.46
-2.91
-4.40
-6.09
-8.13
-10.56
-13.31
-16.14
-18.66
-20.45
-21.10
-20.39
-18.25
-14.84
-10.47
-5.53
-0.43
4.41
8.66
12.05
14.42
15.76
16.19
15.95
15.34
14.64
14.01
13.54
13.20
12.90
12.56
12.05
11.30
10.27
8.96
7.41
5.71
3.93
2.10
0.24
-1.65
-3.60
-5.63
-7.80
-10.21
-12.87
-15.67
-18.29
-20.27
-21.11
-20.46
-18.24
-14.66
-10.12
-5.13
-0.18
4.33
8.15
11.11
13.20
14.45
15.00
14.99
14.60
13.99
13.31
12.68
12.21
11.90
11.73
11.61
11.41
11.05
10.46
9.62
8.50
7.10
5.43
3.55
1.56
-0.43
-2.31
-4.09
-5.90
-7.96
-10.45
-13.42
-16.63
-19.61
-21.73
-22.45
-21.49
-18.91
-15.07
-10.51
-5.78
-1.34
2.49
5.48
7.53
8.61
8.85
8.48
7.82
7.18
6.77
6.65
6.72
6.82
6.79
6.54
6.09
5.46
4.68
3.72
2.54
1.11
-0.57
-2.43
-4.36
-6.26
-8.03
-9.60
-11.02
-12.35
-13.73
-15.24
-16.90
-18.55
-19.86
-20.44
-19.90
-18.02
-14.83
-10.60
-5.80
-0.97
3.39
6.91
9.41
10.87
11.43
11.27
10.60
9.60
8.43
7.27
6.29
5.59
5.17
4.96
4.76
4.41
3.83
3.03
2.08
1.08
0.06
-0.95
-2.00
-3.09
-4.19
-5.29
-6.40
-7.60
-8.99
-10.64
-12.52
-14.45
-16.10
-17.03
-16.89
-15.46
-12.79
-9.19
-5.11
-1.03
2.71
5.90
8.48
10.41
11.65
12.19
12.06
11.43
10.57
9.73
9.10
8.70
8.44
8.18
7.84
7.45
7.06
6.69
6.29
5.77
5.05
4.13
3.05
1.88
0.65
-0.70
-2.23
-4.01
-6.07
-8.32
-10.65
-12.81
-14.50
-15.35
-15.03
-13.33
-10.28
-6.18
-1.55
3.01
7.01
10.16
12.38
13.75
14.36
14.34
13.84
13.01
12.06
11.17
10.42
9.82
9.28
8.72
8.07
7.32
6.50
5.62
4.65
3.55
2.29
0.87
-0.70
-2.45
-4.40
-6.61
-9.08
-11.79
-14.63
-17.38
-19.78
-21.48
-22.13
-21.46
-19.34
-15.83
-11.25
-6.01
-0.65
4.35
8.61
11.87
14.02
15.12
15.30
14.80
13.87
12.79
11.80
11.04
10.56
10.24
9.94
9.48
8.77
7.80
6.65
5.39
4.05
2.63
1.09
-0.54
-2.26
-4.07
-6.05
-8.29
-10.90
-13.84
-16.93
-19.80
-21.99
-23.05
-22.65
-20.67
-17.24
-12.73
-7.64
-2.48
2.37
6.67
10.31
13.22
15.38
16.71
17.23
17.04
16.34
15.38
14.42
13.60
12.92
12.28
11.55
10.57
9.29
7.72
5.95
4.08
2.23
0.45
-1.20
-2.69
-4.06
-5.36
-6.73
-8.33
-10.31
-12.64
-15.15
-17.47
-19.10
-19.59
-18.61
-16.07
-12.18
-7.35
-2.07
3.14
7.86
11.79
14.72
16.53
17.24
16.98
16.06
14.86
13.75
12.97
12.56
12.37
12.17
11.76
11.04
10.05
8.88
7.59
6.22
4.75
3.14
1.43
-0.32
-2.02
-3.61
-5.11
-6.62
-8.30
-10.30
-12.67
-15.34
-18.09
-20.57
-22.31
-22.89
-21.98
-19.52
-15.70
-10.93
-5.76
-0.75
3.67
7.23
9.80
11.40
12.15
12.26
11.94
11.38
10.71
9.96
9.15
8.31
7.47
6.71
6.07
5.55
5.12
4.66
4.07
3.25
2.15
0.81
-0.70
-2.28
-3.85
-5.37
-6.85
-8.30
-9.81
-11.44
-13.28
-15.35
-17.60
-19.78
-21.56
-22.48
-22.17
-20.46
-17.38
-13.24
-8.47
-3.59
0.90
4.62
7.31
8.94
9.65
9.72
9.43
8.98
8.45
7.86
7.18
6.45
5.75
5.16
4.72
4.36
3.98
3.46
2.70
1.70
0.52
-0.75
-2.06
-3.40
-4.84
-6.41
-8.12
-9.89
-11.63
-13.27
-14.84
-16.39
-17.95
-19.40
-20.47
-20.78
-19.96
-17.87
-14.58
-10.46
-5.96
-1.60
2.22
5.26
7.42
8.80
9.57
9.92
10.01
9.91
9.65
9.23
8.69
8.16
7.78
7.65
7.74
7.93
8.04
7.96
7.64
7.11
6.43
5.62
4.65
3.44
2.00
0.35
-1.42
-3.23
-5.01
-6.79
-8.57
-10.31
-11.88
-13.02
-13.41
-12.78
-11.02
-8.19
-4.58
-0.61
3.30
6.83
9.84
12.30
14.24
15.65
16.49
16.73
16.43
15.80
15.07
14.45
14.02
13.67
13.24
12.58
11.65
10.51
9.27
7.97
6.64
5.22
3.64
1.91
0.03
-2.01
-4.22
-6.62
-9.26
-12.08
-15.00
-17.82
-20.30
-22.13
-22.96
-22.47
-20.50
-17.06
-12.43
-7.08
-1.61
3.46
7.78
11.21
13.76
15.55
16.67
17.24
17.36
17.15
16.75
16.29
15.82
15.35
14.80
14.12
13.24
12.13
10.79
9.27
7.62
5.92
4.21
2.48
0.71
-1.16
-3.15
-5.26
-7.50
-9.86
-12.37
-15.01
-17.68
-20.12
-21.96
-22.77
-22.21
-20.13
-16.62
-12.03
-6.87
-1.71
2.96
6.82
9.77
11.87
13.30
14.25
14.83
15.11
15.14
14.93
14.53
13.99
13.37
12.72
12.07
11.39
10.63
9.70
8.49
6.98
5.20
3.23
1.15
-0.95
-3.03
-5.08
-7.07
-9.02
-10.96
-12.99
-15.18
-17.53
-19.84
-21.73
-22.71
-22.36
-20.47
-17.15
-12.81
-7.96
-3.15
1.22
4.92
7.90
10.20
11.89
13.01
13.64
13.87
13.82
13.62
13.38
13.14
12.87
12.47
11.88
11.05
10.06
9.01
8.00
7.05
6.09
5.01
3.69
2.12
0.34
-1.53
-3.42
-5.28
-7.17
-9.19
-11.41
-13.83
-16.34
-18.70
-20.59
-21.63
-21.49
-19.96
-17.02
-12.91
-8.04
-2.93
1.93
6.21
9.69
12.32
14.08
15.02
15.19
14.75
13.91
12.95
12.09
11.46
11.01
10.62
10.15
9.54
8.81
8.07
7.35
6.62
5.77
4.68
3.28
1.61
-0.25
-2.22
-4.23
-6.22
-8.20
-10.16
-12.14
-14.17
-16.28
-18.41
-20.34
-21.71
-22.06
-21.05
-18.55
-14.78
-10.18
-5.35
-0.81
3.09
6.22
8.62
10.37
11.54
12.16
12.28
11.99
11.48
10.99
10.71
10.69
10.82
10.90
10.76
10.33
9.63
8.75
7.71
6.45
4.89
3.03
0.91
-1.27
-3.32
-5.11
-6.66
-8.08
-9.56
-11.25
-13.22
-15.40
-17.56
-19.40
-20.55
-20.65
-19.46
-16.92
-13.18
-8.62
-3.77
0.82
4.70
7.57
9.40
10.30
10.52
10.32
9.93
9.52
9.19
8.93
8.70
8.43
8.08
7.63
7.09
6.50
5.87
5.17
4.35
3.35
2.16
0.77
-0.75
-2.32
-3.83
-5.24
-6.56
-7.86
-9.27
-10.85
-12.59
-14.33
-15.79
-16.62
-16.50
-15.24
-12.83
-9.47
-5.50
-1.34
2.61
6.07
8.84
10.83
12.03
12.51
12.38
11.82
11.04
10.18
9.36
8.57
7.81
7.09
6.44
5.87
5.36
4.84
4.16
3.25
2.09
0.77
-0.61
-1.97
-3.31
-4.69
-6.18
-7.83
-9.63
-11.58
-13.60
-15.61
-17.46
-18.91
-19.67
-19.44
-18.05
-15.51
-12.03
-8.00
-3.87
-0.04
3.20
5.71
7.45
8.46
8.80
8.59
8.00
7.20
6.40
5.73
5.21
4.78
4.31
3.71
2.92
1.94
0.84
-0.35
-1.55
-2.72
-3.81
-4.77
-5.60
-6.38
-7.28
-8.49
-10.18
-12.33
-14.81
-17.31
-19.50
-21.09
-21.84
-21.61
-20.33
-18.01
-14.77
-10.85
-6.61
-2.47
1.22
4.20
6.35
7.67
8.24
8.15
7.53
6.54
5.37
4.25
3.36
2.79
2.53
2.46
2.37
2.08
1.46
0.51
-0.71
-2.05
-3.38
-4.60
-5.68
-6.64
-7.55
-8.56
-9.78
-11.32
-13.14
-15.11
-16.94
-18.25
-18.70
-18.05
-16.23
-13.36
-9.74
-5.74
-1.78
1.81
4.81
7.12
8.72
9.67
10.01
9.85
9.29
8.47
7.53
6.62
5.85
5.30
4.96
4.72
4.48
4.12
3.55
2.77
1.81
0.73
-0.43
-1.63
-2.88
-4.19
-5.58
-7.10
-8.77
-10.58
-12.41
-14.08
-15.30
-15.77
-15.23
-13.55
-10.76
-7.06
-2.76
1.71
5.92
9.50
12.21
14.01
15.03
15.47
15.58
15.50
15.28
14.91
14.39
13.81
13.30
12.95
12.76
12.54
12.09
11.21
9.91
8.32
6.61
4.83
2.90
0.66
-2.05
-5.20
-8.64
-12.13
-15.40
-18.23
-20.37
-21.54
-21.48
-20.02
-17.20
-13.33
-8.84
-4.18
0.27
4.29
7.73
10.46
12.39
13.51
13.88
13.71
13.23
12.66
12.13
11.66
11.22
10.76
10.25
9.67
9.00
8.18
7.20
6.07
4.87
3.64
2.37
0.97
-0.75
-2.97
-5.77
-9.08
-12.64
-16.06
-18.88
-20.70
-21.21
-20.24
-17.81
-14.13
-9.52
-4.43
0.68
5.41
9.46
12.66
14.98
16.44
17.17
17.27
16.89
16.19
15.36
14.55
13.87
13.31
12.77
12.08
11.10
9.78
8.21
6.51
4.80
3.15
1.57
-0.01
-1.71
-3.64
-5.87
-8.46
-11.41
-14.60
-17.83
-20.73
-22.88
-23.80
-23.12
-20.72
-16.78
-11.72
-6.12
-0.54
4.63
9.11
12.80
15.63
17.57
18.67
19.07
18.96
18.58
18.10
17.63
17.18
16.72
16.21
15.62
14.91
14.01
12.83
11.34
9.55
7.54
5.42
3.29
1.20
-0.91
-3.12
-5.54
-8.24
-11.19
-14.30
-17.40
-20.27
-22.66
-24.27
-24.75
-23.78
-21.18
-17.07
-11.83
-6.08
-0.46
4.54
8.68
11.93
14.37
16.08
17.08
17.42
17.25
16.78
16.28
15.95
15.78
15.67
15.44
14.99
14.31
13.47
12.51
11.44
10.15
8.57
6.70
4.63
2.47
0.32
-1.78
-3.86
-5.95
-8.08
-10.24
-12.49
-14.86
-17.36
-19.81
-21.89
-23.10
-22.97
-21.21
-17.82
-13.15
-7.71
-2.13
3.08
7.54
11.01
13.38
14.67
15.04
14.71
13.99
13.13
12.36
11.73
11.23
10.79
10.32
9.77
9.11
8.33
7.40
6.29
4.98
3.49
1.84
0.11
-1.62
-3.31
-4.94
-6.52
-8.09
-9.69
-11.39
-13.24
-15.24
-17.41
-19.64
-21.73
-23.38
-24.20
-23.83
-22.06
-18.93
-14.73
-9.89
-4.90
-0.16
4.04
7.49
10.07
11.68
12.36
12.27
11.69
10.94
10.29
9.83
9.50
9.17
8.70
8.03
7.21
6.32
5.43
4.60
3.76
2.85
1.76
0.44
-1.10
-2.78
-4.49
-6.13
-7.69
-9.20
-10.73
-12.40
-14.27
-16.32
-18.39
-20.17
-21.27
-21.29
-19.98
-17.30
-13.49
-8.96
-4.21
0.32
4.32
7.60
10.06
11.68
12.51
12.66
12.31
11.66
10.87
10.09
9.41
8.86
8.49
8.25
8.10
7.96
7.72
7.31
6.66
5.79
4.69
3.41
2.02
0.59
-0.82
-2.17
-3.46
-4.76
-6.17
-7.83
-9.76
-11.88
-13.94
-15.57
-16.32
-15.83
-13.92
-10.70
-6.50
-1.82
2.84
7.07
10.61
13.33
15.16
16.13
16.32
15.93
15.19
14.34
13.54
12.85
12.25
11.64
10.95
10.17
9.30
8.37
7.38
6.33
5.17
3.82
2.24
0.37
-1.74
-4.03
-6.40
-8.82
-11.27
-13.83
-16.52
-19.27
-21.87
-23.93
-25.01
-24.67
-22.67
-19.04
-14.14
-8.51
-2.77
2.61
7.32
11.25
14.39
16.70
18.09
18.52
18.05
16.96
15.63
14.45
13.65
13.20
12.95
12.67
12.18
11.41
10.34
8.98
7.28
5.23
2.85
0.25
-2.38
-4.89
-7.21
-9.40
-11.64
-14.12
-16.94
-20.00
-22.98
-25.38
-26.68
-26.47
-24.58
-21.08
-16.35
-10.86
-5.14
0.39
5.41
9.73
13.21
15.74
17.27
17.85
17.67
17.05
16.32
15.71
15.27
14.89
14.38
13.61
12.59
11.40
10.16
8.86
7.42
5.72
3.67
1.34
-1.14
-3.63
-6.07
-8.52
-11.10
-13.93
-16.97
-20.02
-22.70
-24.51
-24.99
-23.85
-21.03
-16.75
-11.41
-5.58
0.22
5.54
10.08
13.70
16.35
18.06
18.90
18.98
18.46
17.55
16.47
15.36
14.36
13.48
12.70
11.97
11.22
10.32
9.10
7.43
5.24
2.59
-0.30
-3.14
-5.71
-7.96
-9.99
-12.04
-14.34
-17.02
-20.07
-23.29
-26.38
-28.86
-30.25
-30.10
-28.15
-24.48
-19.49
-13.80
-8.05
-2.74
1.85
5.64
8.63
10.81
12.18
12.79
12.78
12.36
11.75
11.11
10.48
9.85
9.19
8.50
7.84
7.23
6.63
5.92
5.00
3.79
2.29
0.53
-1.40
-3.41
-5.43
-7.37
-9.17
-10.87
-12.56
-14.38
-16.39
-18.49
-20.38
-21.62
-21.79
-20.63
-18.11
-14.47
-10.07
-5.35
-0.70
3.58
7.22
10.07
12.00
13.00
13.13
12.53
11.45
10.16
8.91
7.86
7.09
6.56
6.20
5.94
5.70
5.39
4.91
4.19
3.17
1.90
0.47
-1.00
-2.46
-3.93
-5.50
-7.24
-9.15
-11.18
-13.28
-15.40
-17.51
-19.48
-21.02
-21.70
-21.07
-18.86
-15.07
-10.05
-4.36
1.41
6.75
11.36
15.08
17.80
19.49
20.14
19.91
19.05
17.95
17.00
16.49
16.47
16.75
17.05
17.06
16.63
15.74
14.50
13.01
11.37
9.60
7.71
5.70
3.61
1.45
-0.74
-3.00
-5.36
-7.86
-10.52
-13.26
-15.93
-18.21
-19.75
-20.13
-19.08
-16.49
-12.53
-7.57
-2.11
3.32
8.29
12.45
15.58
17.59
18.51
18.51
17.83
16.79
15.66
14.65
13.90
13.44
13.20
13.01
12.70
12.06
10.97
9.42
7.47
5.29
3.01
0.74
-1.46
-3.60
-5.72
-7.88
-10.17
-12.68
-15.42
-18.29
-21.01
-23.18
-24.34
-24.11
-22.33
-19.02
-14.47
-9.10
-3.41
2.17
7.26
11.59
14.97
17.33
18.67
19.07
18.74
17.94
16.94
15.94
15.05
14.29
13.59
12.85
11.95
10.84
9.46
7.86
6.12
4.32
2.53
0.80
-0.94
-2.76
-4.80
-7.12
-9.77
-12.71
-15.81
-18.83
-21.47
-23.36
-24.15
-23.53
-21.38
-17.74
-12.90
-7.35
-1.64
3.70
8.30
12.00
14.80
16.79
18.04
18.64
18.65
18.21
17.46
16.59
15.69
14.81
13.94
13.04
12.10
11.10
9.99
8.73
7.24
5.49
3.49
1.30
-1.00
-3.34
-5.68
-8.03
-10.44
-13.01
-15.84
-18.91
-22.08
-24.98
-27.10
-27.89
-26.93
-24.11
-19.62
-13.99
-7.86
-1.88
3.45
7.84
11.14
13.40
14.69
15.18
15.05
14.53
13.84
13.19
12.69
12.28
11.84
11.13
10.01
8.46
6.60
4.66
2.80
1.09
-0.56
-2.33
-4.34
-6.61
-9.02
-11.39
-13.63
-15.76
-17.90
-20.18
-22.59
-24.92
-26.77
-27.62
-27.02
-24.74
-20.87
-15.81
-10.17
-4.56
0.56
4.88
8.27
10.65
12.02
12.43
12.09
11.31
10.45
9.76
9.35
9.08
8.77
8.24
7.45
6.47
5.38
4.25
3.11
1.93
0.67
-0.67
-2.08
-3.57
-5.13
-6.78
-8.51
-10.33
-12.26
-14.33
-16.52
-18.74
-20.74
-22.17
-22.62
-21.76
-19.45
-15.85
-11.34
-6.42
-1.65
2.53
5.83
8.14
9.48
9.97
9.78
9.10
8.15
7.15
6.27
5.61
5.13
4.70
4.12
3.25
2.04
0.55
-1.08
-2.71
-4.24
-5.66
-7.00
-8.28
-9.51
-10.70
-11.90
-13.19
-14.68
-16.42
-18.39
-20.42
-22.21
-23.35
-23.47
-22.29
-19.74
-16.00
-11.40
-6.36
-1.31
3.38
7.46
10.72
13.09
14.60
15.40
15.75
15.88
15.96
16.04
16.14
16.24
16.38
16.63
17.00
17.39
17.58
17.30
16.42
14.94
13.04
10.93
8.77
6.51
4.03
1.19
-2.07
-5.62
-9.24
-12.65
-15.56
-17.65
-18.66
-18.32
-16.47
-13.16
-8.67
-3.48
1.88
6.94
11.37
15.01
17.79
19.70
20.74
20.99
20.59
19.80
18.85
17.96
17.21
16.60
16.04
15.43
14.66
13.65
12.30
10.55
8.42
6.01
3.49
1.04
-1.20
-3.27
-5.36
-7.72
-10.53
-13.79
-17.23
-20.40
-22.76
-23.80
-23.19
-20.90
-17.11
-12.21
-6.71
-1.10
4.21
8.93
12.86
15.89
17.96
19.09
19.35
18.95
18.13
17.19
16.33
15.69
15.24
14.82
14.25
13.31
11.92
10.13
8.06
5.90
3.76
1.68
-0.40
-2.52
-4.70
-6.94
-9.22
-11.60
-14.17
-16.96
-19.84
-22.42
-24.18
-24.53
-23.11
-19.83
-14.98
-9.12
-2.90
3.09
8.46
12.99
16.58
19.20
20.83
21.51
21.33
20.50
19.29
18.01
16.88
15.96
15.17
14.37
13.37
12.09
10.51
8.69
6.71
4.65
2.50
0.31
-1.93
-4.16
-6.36
-8.50
-10.66
-12.97
-15.55
-18.40
-21.30
-23.83
-25.43
-25.56
-23.92
-20.49
-15.60
-9.80
-3.73
2.04
7.08
11.16
14.18
16.18
17.25
17.52
17.17
16.42
15.50
14.58
13.80
13.17
12.63
12.06
11.33
10.33
9.02
7.44
5.66
3.77
1.83
-0.16
-2.17
-4.20
-6.25
-8.31
-10.43
-12.65
-15.04
-17.62
-20.31
-22.91
-25.08
-26.41
-26.49
-25.02
-21.90
-17.33
-11.76
-5.81
-0.13
4.78
8.64
11.37
13.05
13.80
13.80
13.22
12.27
11.20
10.23
9.48
8.97
8.61
8.21
7.56
6.54
5.11
3.35
1.45
-0.43
-2.19
-3.81
-5.30
-6.74
-8.16
-9.59
-11.07
-12.63
-14.38
-16.36
-18.56
-20.81
-22.77
-24.01
-24.13
-22.83
-20.04
-15.95
-10.97
-5.65
-0.56
3.81
7.13
9.25
10.20
10.20
9.55
8.57
7.54
6.61
5.87
5.27
4.79
4.34
3.87
3.36
2.78
2.14
1.44
0.67
-0.16
-1.07
-2.05
-3.10
-4.21
-5.38
-6.66
-8.11
-9.80
-11.75
-13.97
-16.36
-18.69
-20.67
-21.89
-21.97
-20.63
-17.83
-13.81
-9.05
-4.15
0.35
4.09
6.93
8.90
10.12
10.74
10.86
10.57
9.97
9.17
8.30
7.51
6.87
6.40
6.04
5.67
5.15
4.42
3.50
2.43
1.27
0.04
-1.27
-2.67
-4.12
-5.58
-7.01
-8.44
-9.94
-11.57
-13.33
-15.06
-16.45
-17.13
-16.78
-15.17
-12.30
-8.31
-3.55
1.57
6.61
11.14
14.84
17.54
19.18
19.85
19.74
19.11
18.19
17.21
16.29
15.49
14.80
14.22
13.68
13.10
12.35
11.31
9.89
8.08
5.97
3.69
1.37
-0.92
-3.20
-5.53
-7.96
-10.57
-13.39
-16.40
-19.45
-22.23
-24.30
-25.15
-24.41
-21.97
-18.03
-13.01
-7.44
-1.80
3.56
8.37
12.39
15.43
17.34
18.12
17.95
17.18
16.16
15.21
14.45
13.85
13.28
12.58
11.68
10.58
9.33
7.95
6.47
4.89
3.22
1.47
-0.36
-2.28
-4.38
-6.76
-9.49
-12.61
-16.03
-19.53
-22.76
-25.30
-26.64
-26.40
-24.34
-20.52
-15.32
-9.30
-3.11
2.73
7.86
12.13
15.47
17.89
19.41
20.07
20.00
19.42
18.59
17.78
17.15
16.68
16.21
15.50
14.35
12.69
10.62
8.37
6.18
4.21
2.41
0.65
-1.27
-3.51
-6.10
-9.01
-12.17
-15.53
-18.98
-22.31
-25.16
-27.03
-27.44
-26.06
-22.88
-18.23
-12.64
-6.68
-0.81
4.70
9.65
13.88
17.22
19.52
20.72
20.92
20.38
19.43
18.33
17.19
16.06
14.93
13.82
12.77
11.81
10.86
9.79
8.45
6.78
4.82
2.72
0.60
-1.47
-3.53
-5.65
-7.91
-10.36
-13.00
-15.78
-18.60
-21.27
-23.45
-24.68
-24.53
-22.65
-19.01
-13.90
-7.88
-1.67
4.08
8.89
12.58
15.16
16.78
17.62
17.82
17.50
16.77
15.78
14.75
13.89
13.32
13.06
13.02
12.99
12.75
12.11
10.96
9.29
7.18
4.80
2.32
-0.09
-2.28
-4.22
-5.94
-7.58
-9.38
-11.57
-14.30
-17.51
-20.82
-23.54
-24.91
-24.29
-21.46
-16.73
-10.80
-4.56
1.25
6.14
9.94
12.65
14.39
15.26
15.40
15.02
14.38
13.69
13.12
12.68
12.29
11.82
11.16
10.26
9.10
7.70
6.11
4.41
2.67
0.98
-0.63
-2.16
-3.68
-5.27
-7.01
-8.95
-11.12
-13.52
-16.05
-18.54
-20.69
-22.14
-22.52
-21.59
-19.29
-15.79
-11.42
-6.62
-1.83
2.51
6.12
8.78
10.46
11.21
11.21
10.65
9.75
8.71
7.68
6.77
6.08
5.61
5.34
5.16
4.92
4.44
3.61
2.37
0.74
-1.17
-3.18
-5.16
-7.02
-8.75
-10.44
-12.18
-14.06
-16.08
-18.18
-20.20
-21.92
-23.04
-23.24
-22.22
-19.81
-16.06
-11.25
-5.88
-0.57
4.11
7.73
10.11
11.28
11.48
10.98
10.06
8.94
7.81
6.77
5.91
5.25
4.73
4.26
3.76
3.18
2.52
1.80
1.00
0.05
-1.10
-2.47
-3.95
-5.47
-6.92
-8.36
-9.89
-11.66
-13.72
-15.94
-18.05
-19.70
-20.53
-20.25
-18.72
-15.97
-12.25
-7.90
-3.39
0.86
4.50
7.33
9.27
10.38
10.74
10.52
9.91
9.07
8.16
7.31
6.59
6.04
5.63
5.28
4.84
4.17
3.19
1.95
0.58
-0.77
-2.02
-3.19
-4.41
-5.78
-7.38
-9.22
-11.25
-13.43
-15.63
-17.64
-19.09
-19.52
-18.56
-16.03
-12.07
-7.10
-1.65
3.73
8.64
12.80
16.04
18.27
19.52
19.87
19.54
18.78
17.82
16.84
15.90
15.00
14.06
13.03
11.87
10.60
9.25
7.89
6.51
5.06
3.46
1.59
-0.60
-3.08
-5.84
-8.81
-11.99
-15.34
-18.71
-21.79
-24.12
-25.18
-24.62
-22.32
-18.50
-13.58
-8.09
-2.55
2.68
7.32
11.19
14.18
16.19
17.21
17.32
16.75
15.81
14.82
13.99
13.37
12.84
12.22
11.34
10.15
8.66
7.00
5.25
3.47
1.64
-0.28
-2.33
-4.56
-6.98
-9.63
-12.57
-15.75
-19.05
-22.11
-24.42
-25.39
-24.56
-21.78
-17.28
-11.62
-5.48
0.52
6.01
10.79
14.79
17.94
20.13
21.29
21.42
20.71
19.47
18.09
16.88
15.99
15.35
14.74
13.95
12.82
11.34
9.62
7.79
5.89
3.90
1.71
-0.75
-3.51
-6.50
-9.68
-13.00
-16.42
-19.83
-22.93
-25.30
-26.48
-26.09
-23.99
-20.29
-15.26
-9.32
-2.93
3.39
9.13
13.83
17.23
19.24
20.03
19.93
19.29
18.44
17.57
16.79
16.14
15.62
15.18
14.74
14.14
13.21
11.82
9.94
7.70
5.27
2.85
0.50
-1.79
-4.10
-6.54
-9.13
-11.89
-14.79
-17.82
-20.86
-23.64
-25.69
-26.44
-25.40
-22.33
-17.41
-11.17
-4.36
2.26
8.11
12.80
16.16
18.22
19.17
19.28
18.93
18.43
17.97
17.60
17.23
16.73
15.98
14.97
13.73
12.26
10.55
8.56
6.29
3.78
1.15
-1.49
-4.07
-6.54
-8.89
-11.09
-13.15
-15.09
-17.05
-19.18
-21.59
-24.18
-26.68
-28.60
-29.42
-28.69
-26.20
-22.01
-16.42
-9.96
-3.29
2.97
8.27
12.31
15.02
16.50
16.96
16.64
15.75
14.50
13.07
11.65
10.43
9.50
8.84
8.33
7.79
7.06
6.07
4.87
3.51
2.09
0.60
-0.95
-2.58
-4.27
-5.97
-7.61
-9.16
-10.67
-12.21
-13.89
-15.79
-17.89
-20.03
-21.93
-23.25
-23.60
-22.65
-20.29
-16.62
-11.96
-6.81
-1.69
2.94
6.72
9.46
11.10
11.72
11.53
10.82
9.88
8.99
8.28
7.82
7.54
7.32
7.03
6.55
5.87
5.00
3.97
2.82
1.59
0.32
-0.98
-2.28
-3.59
-4.92
-6.33
-7.83
-9.45
-11.18
-13.07
-15.12
-17.30
-19.43
-21.12
-21.85
-21.12
-18.66
-14.55
-9.23
-3.37
2.33
7.38
11.49
14.60
16.77
18.08
18.64
18.58
18.07
17.31
16.53
15.87
15.42
15.15
14.98
14.76
14.33
13.57
12.43
10.92
9.15
7.25
5.34
3.47
1.63
-0.29
-2.35
-4.62
-7.15
-9.93
-12.91
-15.95
-18.73
-20.77
-21.57
-20.74
-18.14
-13.97
-8.65
-2.72
3.33
9.09
14.23
18.44
21.47
23.19
23.62
22.98
21.64
20.01
18.41
17.03
15.91
14.97
14.07
13.10
11.96
10.57
8.87
6.83
4.46
1.85
-0.88
-3.57
-6.07
-8.35
-10.48
-12.60
-14.88
-17.44
-20.28
-23.25
-26.04
-28.14
-29.03
-28.25
-25.63
-21.30
-15.72
-9.49
-3.23
2.59
7.68
11.95
15.34
17.90
19.63
20.60
20.90
20.67
20.09
19.34
18.57
17.83
17.07
16.17
15.02
13.57
11.85
9.98
8.10
6.26
4.41
2.44
0.24
-2.21
-4.85
-7.61
-10.43
-13.32
-16.31
-19.36
-22.28
-24.71
-26.18
-26.25
-24.67
-21.42
-16.77
-11.13
-5.01
1.08
6.70
11.48
15.18
17.69
19.06
19.47
19.16
18.44
17.57
16.76
16.14
15.77
15.63
15.63
15.62
15.40
14.83
13.81
12.35
10.55
8.53
6.43
4.31
2.19
0.05
-2.16
-4.44
-6.79
-9.24
-11.82
-14.62
-17.67
-20.87
-23.88
-26.18
-27.19
-26.46
-23.83
-19.55
-14.09
-8.07
-2.01
3.65
8.61
12.61
15.47
17.13
17.73
17.56
17.04
16.50
16.10
15.83
15.55
15.16
14.63
13.97
13.23
12.41
11.43
10.20
8.64
6.72
4.51
2.11
-0.34
-2.67
-4.78
-6.63
-8.30
-9.93
-11.69
-13.74
-16.12
-18.82
-21.64
-24.29
-26.27
-27.07
-26.23
-23.55
-19.19
-13.65
-7.59
-1.70
3.50
7.68
10.66
12.44
13.09
12.85
12.06
11.06
10.16
9.47
9.00
8.66
8.34
7.97
7.56
7.06
6.47
5.74
4.84
3.75
2.44
0.92
-0.83
-2.76
-4.83
-6.93
-8.98
-10.94
-12.82
-14.67
-16.57
-18.59
-20.66
-22.63
-24.18
-24.93
-24.48
-22.57
-19.21
-14.66
-9.43
-4.07
0.92
5.16
8.46
10.70
11.86
11.99
11.24
9.90
8.30
6.78
5.56
4.72
4.20
3.86
3.55
3.18
2.69
2.10
1.44
0.73
-0.07
-1.00
-2.13
-3.47
-4.98
-6.55
-8.07
-9.50
-10.90
-12.40
-14.16
-16.24
-18.48
-20.57
-22.05
-22.49
-21.54
-19.10
-15.28
-10.43
-5.05
0.29
5.08
8.97
11.76
13.47
14.23
14.26
13.77
12.98
12.08
11.23
10.52
9.99
9.57
9.20
8.77
8.25
7.64
6.95
6.18
5.29
4.22
2.90
1.38
-0.28
-1.96
-3.63
-5.32
-7.16
-9.29
-11.78
-14.49
-17.12
-19.22
-20.29
-19.95
-18.01
-14.55
-9.90
-4.56
0.90
5.95
10.21
13.44
15.57
16.66
16.87
16.42
15.57
14.55
13.55
12.66
11.88
11.19
10.51
9.78
8.92
7.87
6.59
5.11
3.54
1.99
0.50
-0.94
-2.45
-4.16
-6.15
-8.45
-11.07
-13.98
-17.15
-20.39
-23.31
-25.32
-25.83
-24.41
-20.99
-15.92
-9.85
-3.53
2.42
7.59
11.81
15.02
17.22
18.47
18.86
18.54
17.76
16.78
15.85
15.08
14.48
13.89
13.11
11.99
10.46
8.59
6.58
4.60
2.78
1.13
-0.45
-2.11
-3.97
-6.12
-8.59
-11.35
-14.36
-17.47
-20.48
-23.05
-24.76
-25.21
-24.06
-21.22
-16.85
-11.35
-5.29
0.75
6.29
11.02
14.80
17.60
19.47
20.51
20.82
20.54
19.80
18.74
17.50
16.24
15.09
14.13
13.32
12.50
11.44
9.91
7.83
5.28
2.50
-0.26
-2.82
-5.14
-7.32
-9.48
-11.74
-14.19
-16.88
-19.78
-22.78
-25.61
-27.80
-28.83
-28.19
-25.58
-21.09
-15.15
-8.45
-1.72
4.44
9.70
13.95
17.21
19.54
20.95
21.50
21.32
20.63
19.68
18.71
17.84
17.09
16.37
15.57
14.61
13.42
11.96
10.18
8.10
5.72
3.16
0.56
-1.87
-3.98
-5.71
-7.16
-8.58
-10.28
-12.54
-15.44
-18.76
-22.03
-24.58
-25.74
-25.03
-22.28
-17.68
-11.76
-5.21
1.29
7.16
12.05
15.78
18.33
19.77
20.27
20.04
19.39
18.58
17.79
17.07
16.40
15.69
14.89
13.96
12.92
11.74
10.41
8.86
7.07
5.06
2.93
0.79
-1.25
-3.20
-5.10
-7.11
-9.36
-11.94
-14.80
-17.77
-20.56
-22.82
-24.22
-24.47
-23.40
-20.93
-17.13
-12.22
-6.61
-0.80
4.65
9.29
12.82
15.19
16.54
17.11
17.15
16.86
16.33
15.62
14.77
13.80
12.80
11.81
10.88
10.01
9.11
8.08
6.81
5.26
3.51
1.70
-0.03
-1.62
-3.09
-4.59
-6.22
-8.02
-9.92
-11.83
-13.71
-15.56
-17.39
-19.03
-20.17
-20.31
-19.02
-16.13
-11.86
-6.74
-1.46
3.41
7.52
10.75
13.13
14.65
15.32
15.14
14.23
12.87
11.42
10.22
9.39
8.91
8.58
8.19
7.63
6.88
6.00
5.02
3.90
2.55
0.90
-1.02
-3.10
-5.14
-6.99
-8.55
-9.89
-11.17
-12.64
-14.45
-16.67
-19.08
-21.28
-22.72
-22.88
-21.41
-18.30
-13.82
-8.53
-3.03
2.08
6.39
9.67
11.88
13.09
13.46
13.18
12.45
11.45
10.35
9.26
8.26
7.35
6.50
5.66
4.79
3.86
2.88
1.84
0.75
-0.42
-1.65
-2.96
-4.38
-5.94
-7.69
-9.69
-11.92
-14.34
-16.83
-19.24
-21.37
-23.04
-24.03
-24.11
-23.12
-20.95
-17.66
-13.42
-8.55
-3.45
1.40
5.61
8.86
11.02
12.11
12.28
11.77
10.83
9.70
8.57
7.56
6.74
6.11
5.59
5.09
4.53
3.85
3.05
2.15
1.17
0.11
-1.04
-2.33
-3.79
-5.47
-7.36
-9.42
-11.57
-13.73
-15.81
-17.72
-19.30
-20.34
-20.56
-19.71
-17.64
-14.43
-10.35
-5.84
-1.37
2.66
5.99
8.50
10.15
10.94
10.94
10.27
9.12
7.72
6.29
5.00
3.91
2.95
2.01
0.99
-0.13
-1.31
-2.43
-3.39
-4.15
-4.75
-5.30
-5.95
-6.83
-8.00
-9.45
-11.19
-13.17
-15.38
-17.72
-19.94
-21.65
-22.35
-21.63
-19.30
-15.54
-10.79
-5.63
-0.60
3.91
7.68
10.60
12.65
13.84
14.27
14.11
13.56
12.84
12.10
11.41
10.81
10.29
9.84
9.35
8.76
7.99
7.05
6.00
4.94
3.93
2.88
1.64
0.02
-2.13
-4.81
-7.86
-11.05
-14.08
-16.66
-18.52
-19.42
-19.12
-17.47
-14.44
-10.24
-5.26
-0.04
4.91
9.19
12.61
15.10
16.65
17.31
17.13
16.27
15.03
13.73
12.65
11.88
11.29
10.66
9.82
8.73
7.50
6.28
5.12
4.00
2.76
1.22
-0.73
-3.11
-5.84
-8.76
-11.75
-14.68
-17.43
-19.80
-21.50
-22.13
-21.34
-18.94
-15.07
-10.11
-4.65
0.77
5.79
10.20
13.95
16.96
19.10
20.26
20.45
19.82
18.69
17.39
16.17
15.13
14.23
13.33
12.32
11.12
9.71
8.10
6.35
4.50
2.56
0.49
-1.76
-4.27
-7.08
-10.18
-13.52
-17.00
-20.46
-23.64
-26.14
-27.51
-27.27
-25.13
-21.06
-15.43
-8.83
-2.00
4.43
10.04
14.61
18.06
20.43
21.75
22.13
21.76
20.90
19.83
18.79
17.90
17.16
16.49
15.79
14.98
14.00
12.78
11.27
9.50
7.54
5.49
3.42
1.31
-0.90
-3.33
-6.03
-8.98
-12.14
-15.49
-18.91
-22.15
-24.79
-26.22
-25.88
-23.44
-18.98
-13.00
-6.28
0.39
6.43
11.48
15.43
18.30
20.19
21.19
21.44
21.11
20.41
19.56
18.73
18.02
17.40
16.76
15.94
14.84
13.47
11.95
10.41
8.93
7.51
6.01
4.28
2.28
0.05
-2.28
-4.62
-6.93
-9.29
-11.84
-14.63
-17.62
-20.55
-23.03
-24.58
-24.77
-23.33
-20.24
-15.75
-10.30
-4.43
1.35
6.64
11.14
14.64
17.03
18.26
18.44
17.80
16.68
15.43
14.31
13.41
12.67
11.97
11.20
10.32
9.37
8.37
7.30
6.06
4.50
2.55
0.23
-2.28
-4.76
-6.96
-8.77
-10.18
-11.34
-12.50
-13.94
-15.83
-18.22
-20.92
-23.58
-25.67
-26.67
-26.12
-23.80
-19.80
-14.48
-8.46
-2.42
3.04
7.51
10.79
12.84
13.73
13.64
12.80
11.55
10.22
9.12
8.41
8.05
7.87
7.60
7.07
6.24
5.20
4.09
3.05
2.10
1.15
0.08
-1.22
-2.77
-4.45
-6.14
-7.71
-9.14
-10.52
-12.00
-13.66
-15.51
-17.46
-19.33
-20.90
-21.86
-21.87
-20.65
-18.04
-14.09
-9.13
-3.75
1.41
5.78
9.02
11.06
12.04
12.22
11.88
11.21
10.37
9.45
8.52
7.65
6.84
6.11
5.42
4.76
4.13
3.53
2.92
2.22
1.30
0.05
-1.49
-3.18
-4.81
-6.23
-7.43
-8.55
-9.78
-11.28
-13.06
-15.03
-17.02
-18.83
-20.20
-20.83
-20.33
-18.40
-14.93
-10.09
-4.38
1.49
6.85
11.19
14.30
16.20
17.15
17.41
17.25
16.88
16.45
16.04
15.66
15.34
15.03
14.66
14.13
13.35
12.21
10.68
8.83
6.80
4.73
2.76
0.91
-0.89
-2.74
-4.76
-6.98
-9.40
-11.99
-14.74
-17.64
-20.55
-23.15
-24.91
-25.22
-23.63
-20.08
-14.94
-8.88
-2.69
3.04
7.97
12.01
15.15
17.37
18.67
19.02
18.55
17.50
16.18
14.87
13.73
12.80
12.01
11.30
10.60
9.85
8.97
7.88
6.48
4.78
2.83
0.77
-1.31
-3.37
-5.48
-7.78
-10.42
-13.46
-16.83
-20.26
-23.36
-25.64
-26.63
-25.97
-23.54
-19.46
-14.07
-7.93
-1.66
4.15
9.09
12.93
15.65
17.35
18.21
18.41
18.08
17.37
16.44
15.45
14.58
13.87
13.25
12.53
11.52
10.12
8.41
6.55
4.72
2.95
1.20
-0.68
-2.77
-5.09
-7.57
-10.18
-12.94
-15.96
-19.24
-22.61
-25.58
-27.52
-27.75
-25.83
-21.73
-15.87
-8.99
-1.89
4.70
10.36
14.89
18.30
20.66
22.06
22.59
22.36
21.57
20.43
19.15
17.88
16.66
15.49
14.27
12.94
11.45
9.79
7.98
6.09
4.19
2.32
0.48
-1.38
-3.34
-5.45
-7.74
-10.23
-12.90
-15.76
-18.80
-21.92
-24.82
-27.05
-28.01
-27.15
-24.19
-19.25
-12.81
-5.68
1.33
7.56
12.62
16.42
19.04
20.65
21.42
21.48
20.98
20.06
18.91
17.73
16.63
15.67
14.79
13.89
12.87
11.64
10.18
8.50
6.65
4.64
2.49
0.20
-2.23
-4.73
-7.23
-9.63
-11.85
-13.91
-15.92
-18.08
-20.54
-23.30
-26.11
-28.41
-29.50
-28.77
-25.92
-21.12
-14.94
-8.18
-1.58
4.30
9.17
12.88
15.40
16.77
17.08
16.52
15.39
14.02
12.72
11.68
10.94
10.39
9.89
9.28
8.47
7.41
6.13
4.65
3.02
1.27
-0.53
-2.29
-3.93
-5.39
-6.66
-7.81
-8.98
-10.30
-11.89
-13.83
-16.11
-18.64
-21.18
-23.37
-24.73
-24.80
-23.24
-19.99
-15.32
-9.75
-3.96
1.45
5.99
9.37
11.51
12.46
12.42
11.72
10.68
9.58
8.59
7.74
7.01
6.36
5.82
5.43
5.15
4.89
4.48
3.76
2.66
1.27
-0.25
-1.76
-3.22
-4.67
-6.22
-7.96
-9.91
-12.03
-14.24
-16.46
-18.63
-20.62
-22.19
-23.02
-22.74
-21.06
-17.92
-13.50
-8.22
-2.64
2.70
7.32
10.90
13.26
14.43
14.53
13.86
12.76
11.54
10.46
9.67
9.22
9.05
9.09
9.16
9.11
8.78
8.09
7.02
5.62
4.05
2.44
0.90
-0.52
-1.88
-3.33
-5.01
-7.07
-9.54
-12.33
-15.18
-17.70
-19.42
-19.91
-18.88
-16.25
-12.22
-7.15
-1.58
3.97
9.01
13.17
16.23
18.12
18.92
18.82
18.12
17.12
16.07
15.10
14.20
13.29
12.29
11.18
9.97
8.74
7.49
6.22
4.85
3.34
1.66
-0.20
-2.21
-4.37
-6.72
-9.31
-12.17
-15.27
-18.50
-21.61
-24.20
-25.83
-26.04
-24.55
-21.33
-16.64
-10.96
-4.85
1.20
6.80
11.68
15.65
18.51
20.17
20.65
20.11
18.91
17.42
15.99
14.81
13.89
13.14
12.40
11.50
10.32
8.77
6.83
4.53
1.98
-0.67
-3.26
-5.71
-8.00
-10.28
-12.76
-15.61
-18.86
-22.29
-25.37
-27.44
-27.84
-26.17
-22.44
-17.02
-10.52
-3.64
3.06
9.14
14.31
18.35
21.16
22.72
23.17
22.73
21.73
20.47
19.21
18.08
17.13
16.32
15.53
14.58
13.32
11.61
9.50
7.11
4.69
2.47
0.54
-1.19
-2.92
-4.91
-7.37
-10.41
-13.96
-17.81
-21.58
-24.74
-26.67
-26.78
-24.72
-20.54
-14.66
-7.84
-0.85
5.62
11.17
15.60
18.80
20.72
21.36
20.81
19.36
17.40
15.38
13.69
12.50
11.77
11.31
10.85
10.16
9.09
7.61
5.79
3.75
1.60
-0.59
-2.79
-5.03
-7.35
-9.79
-12.32
-14.95
-17.68
-20.54
-23.52
-26.46
-28.98
-30.51
-30.44
-28.34
-24.17
-18.31
-11.50
-4.54
1.89
7.36
11.66
14.74
16.59
17.23
16.81
15.60
13.98
12.37
11.09
10.28
9.91
9.76
9.58
9.18
8.46
7.41
6.11
4.62
3.00
1.24
-0.66
-2.69
-4.82
-6.96
-9.04
-10.99
-12.82
-14.60
-16.45
-18.49
-20.68
-22.78
-24.33
-24.74
-23.51
-20.43
-15.69
-9.81
-3.49
2.59
7.92
12.21
15.28
17.11
17.72
17.27
16.07
14.50
12.96
11.78
11.10
10.90
11.00
11.14
11.06
10.56
9.56
8.12
6.38
4.54
2.72
0.99
-0.68
-2.31
-3.91
-5.43
-6.88
-8.27
-9.74
-11.49
-13.60
-16.02
-18.41
-20.20
-20.76
-19.58
-16.43
-11.50
-5.28
1.54
8.28
14.33
19.28
22.84
24.89
25.45
24.74
23.12
21.07
19.06
17.42
16.28
15.60
15.18
14.82
14.31
13.54
12.43
10.95
9.14
7.08
4.87
2.64
0.44
-1.72
-3.89
-6.13
-8.52
-11.14
-14.03
-17.21
-20.62
-23.97
-26.76
-28.33
-28.07
-25.61
-21.09
-15.03
-8.23
-1.46
4.72
10.09
14.59
18.28
21.13
23.02
23.86
23.65
22.54
20.89
19.07
17.41
16.08
15.02
14.09
13.07
11.86
10.41
8.76
6.92
4.91
2.68
0.24
-2.37
-5.06
-7.70
-10.24
-12.75
-15.35
-18.18
-21.27
-24.42
-27.20
-28.99
-29.19
-27.39
-23.53
-17.98
-11.34
-4.37
2.29
8.16
12.99
16.67
19.21
20.70
21.26
21.09
20.44
19.59
18.78
18.16
17.80
17.60
17.37
16.85
15.84
14.26
12.19
9.82
7.37
4.96
2.59
0.19
-2.35
-5.05
-7.89
-10.82
-13.86
-17.10
-20.59
-24.23
-27.67
-30.32
-31.49
-30.62
-27.51
-22.38
-15.83
-8.64
-1.54
4.89
10.30
14.53
17.53
19.32
20.06
19.97
19.38
18.63
18.01
17.63
17.48
17.37
17.07
16.38
15.21
13.59
11.65
9.55
7.42
5.29
3.13
0.89
-1.46
-3.90
-6.37
-8.81
-11.20
-13.59
-16.07
-18.78
-21.73
-24.82
-27.64
-29.60
-30.03
-28.46
-24.74
-19.22
-12.58
-5.61
0.96
6.69
11.38
14.99
17.49
18.87
19.14
18.46
17.13
15.56
14.10
13.00
12.28
11.80
11.34
10.66
9.61
8.13
6.26
4.11
1.80
-0.53
-2.81
-4.98
-7.07
-9.10
-11.13
-13.19
-15.26
-17.36
-19.49
-21.68
-23.88
-25.97
-27.64
-28.47
-28.02
-25.96
-22.27
-17.26
-11.47
-5.55
-0.06
4.62
8.31
10.98
12.68
13.49
13.51
12.89
11.88
10.75
9.76
9.06
8.68
8.46
8.21
7.75
7.01
6.01
4.82
3.52
2.12
0.59
-1.08
-2.84
-4.58
-6.17
-7.57
-8.87
-10.30
-12.08
-14.35
-17.02
-19.77
-22.16
-23.68
-23.93
-22.71
-19.98
-15.94
-10.96
-5.53
-0.20
4.57
8.40
11.16
12.79
13.38
13.05
11.96
10.38
8.61
6.97
5.69
4.86
4.38
4.09
3.79
3.32
2.62
1.66
0.47
-0.91
-2.38
-3.83
-5.16
-6.32
-7.33
-8.29
-9.33
-10.57
-12.11
-13.95
-16.01
-18.06
-19.75
-20.67
-20.38
-18.61
-15.29
-10.61
-4.98
1.04
6.81
11.80
15.62
18.10
19.30
19.44
18.82
17.76
16.55
15.37
14.33
13.45
12.71
12.05
11.42
10.72
9.85
8.68
7.12
5.21
3.10
1.02
-0.84
-2.49
-4.08
-5.86
-8.04
-10.66
-13.58
-16.57
-19.35
-21.64
-23.14
-23.57
-22.63
-20.18
-16.27
-11.22
-5.52
0.25
5.59
10.10
13.54
15.80
16.91
17.00
16.34
15.28
14.15
13.24
12.66
12.37
12.22
11.98
11.46
10.54
9.20
7.50
5.56
3.47
1.30
-0.89
-3.10
-5.39
-7.83
-10.55
-13.62
-17.05
-20.66
-24.11
-26.86
-28.35
-28.06
-25.72
-21.43
-15.58
-8.83
-1.93
4.46
9.91
14.17
17.24
19.20
20.21
20.42
20.03
19.21
18.14
16.98
15.85
14.81
13.86
12.88
11.78
10.47
8.92
7.15
5.25
3.27
1.22
-0.94
-3.28
-5.84
-8.61
-11.57
-14.68
-17.88
-21.09
-24.08
-26.43
-27.59
-27.03
-24.38
-19.70
-13.40
-6.23
1.00
7.60
13.12
17.41
20.47
22.39
23.25
23.13
22.19
20.69
19.03
17.56
16.53
15.99
15.78
15.59
15.08
14.06
12.48
10.43
8.12
5.74
3.42
1.19
-1.04
-3.36
-5.87
-8.60
-11.54
-14.64
-17.78
-20.82
-23.50
-25.47
-26.27
-25.47
-22.81
-18.35
-12.48
-5.88
0.77
6.88
12.10
16.31
19.51
21.71
22.91
23.15
22.56
21.39
19.95
18.55
17.37
16.44
15.66
14.90
13.97
12.78
11.26
9.41
7.28
4.96
2.53
0.08
-2.36
-4.76
-7.08
-9.29
-11.37
-13.40
-15.50
-17.84
-20.49
-23.28
-25.76
-27.28
-27.20
-25.13
-21.06
-15.42
-8.89
-2.19
4.01
9.28
13.36
16.15
17.67
18.05
17.52
16.39
15.01
13.72
12.73
12.14
11.84
11.64
11.32
10.69
9.65
8.21
6.41
4.31
1.99
-0.48
-3.00
-5.46
-7.79
-9.93
-11.92
-13.84
-15.83
-17.97
-20.31
-22.81
-25.26
-27.33
-28.55
-28.46
-26.70
-23.21
-18.21
-12.18
-5.78
0.38
5.74
9.95
12.83
14.33
14.62
13.96
12.75
11.40
10.22
9.41
8.99
8.82
8.70
8.42
7.81
6.80
5.44
3.83
2.13
0.47
-1.04
-2.42
-3.72
-5.09
-6.59
-8.26
-10.06
-11.93
-13.88
-15.92
-18.07
-20.26
-22.24
-23.62
-23.91
-22.75
-19.95
-15.69
-10.40
-4.69
0.80
5.54
9.21
11.67
12.97
13.24
12.64
11.40
9.77
8.04
6.51
5.38
4.75
4.54
4.55
4.51
4.25
3.63
2.67
1.41
-0.05
-1.61
-3.19
-4.72
-6.18
-7.57
-8.93
-10.34
-11.85
-13.52
-15.33
-17.21
-18.96
-20.25
-20.69
-19.87
-17.58
-13.80
-8.83
-3.17
2.58
7.89
12.31
15.59
17.65
18.55
18.52
17.82
16.77
15.62
14.54
13.60
12.81
12.17
11.69
11.33
11.02
10.63
9.99
8.98
7.57
5.81
3.83
1.75
-0.35
-2.49
-4.72
-7.12
-9.77
-12.67
-15.77
-18.90
-21.72
-23.75
-24.48
-23.48
-20.65
-16.23
-10.76
-4.88
0.81
5.94
10.30
13.79
16.40
18.04
18.68
18.39
17.41
16.07
14.75
13.70
13.00
12.54
12.08
11.40
10.34
8.86
7.02
4.94
2.76
0.61
-1.39
-3.20
-4.88
-6.58
-8.54
-10.95
-13.93
-17.38
-20.98
-24.25
-26.58
-27.39
-26.26
-23.09
-18.14
-12.01
-5.47
0.72
6.02
10.21
13.29
15.40
16.67
17.18
17.01
16.29
15.25
14.18
13.31
12.75
12.42
12.11
11.60
10.72
9.47
7.98
6.42
4.94
3.54
2.11
0.45
-1.58
-4.09
-7.04
-10.36
-13.96
-17.75
-21.50
-24.85
-27.26
-28.14
-27.02
-23.79
-18.72
-12.44
-5.71
0.78
6.55
11.36
15.11
17.80
19.44
20.11
19.94
19.21
18.22
17.25
16.48
15.94
15.52
15.05
14.38
13.40
12.08
10.45
8.59
6.59
4.51
2.37
0.11
-2.30
-4.91
-7.71
-10.67
-13.77
-16.97
-20.22
-23.31
-25.88
-27.37
-27.22
-25.04
-20.82
-14.96
-8.18
-1.26
5.14
10.60
14.93
18.10
20.14
21.13
21.18
20.50
19.30
17.85
16.38
15.06
14.02
13.27
12.76
12.28
11.57
10.41
8.68
6.44
3.88
1.28
-1.14
-3.28
-5.20
-7.05
-9.02
-11.26
-13.87
-16.87
-20.15
-23.47
-26.42
-28.40
-28.80
-27.17
-23.36
-17.68
-10.87
-3.84
2.56
7.76
11.56
14.04
15.42
15.91
15.71
15.00
14.02
13.00
12.12
11.43
10.84
10.17
9.25
7.99
6.48
4.86
3.28
1.80
0.39
-1.07
-2.72
-4.61
-6.68
-8.77
-10.72
-12.49
-14.15
-15.95
-18.07
-20.51
-22.94
-24.79
-25.36
-24.17
-21.06
-16.35
-10.61
-4.55
1.25
6.37
10.56
13.68
15.61
16.33
15.93
14.64
12.84
10.97
9.39
8.28
7.61
7.20
6.79
6.20
5.38
4.36
3.22
2.01
0.73
-0.69
-2.25
-3.93
-5.61
-7.25
-8.83
-10.45
-12.25
-14.37
-16.80
-19.37
-21.70
-23.29
-23.64
-22.39
-19.45
-15.07
-9.73
-4.06
1.34
6.04
9.81
12.57
14.37
15.30
15.50
15.14
14.46
13.67
13.00
12.59
12.49
12.61
12.83
12.97
12.88
12.50
11.84
10.91
9.77
8.44
6.92
5.23
3.41
1.50
-0.51
-2.63
