1635865709.00
64.000000
-0.00
-0.00
-0.00
-0.00
-0.00
-0.00
-0.00
-0.00
-0.00
-0.00
0.00
0.01
0.01
-0.00
-0.03
-0.05
-0.05
0.00
0.13
0.36
0.66
1.01
1.37
1.72
2.06
2.40
2.79
3.24
3.80
4.42
5.06
5.66
6.20
6.68
7.15
7.68
8.31
9.14
10.09
11.04
11.88
12.56
13.14
13.76
14.65
15.96
17.91
20.32
22.90
25.38
27.58
29.57
31.68
34.32
37.81
42.54
48.15
54.10
59.83
64.97
69.58
74.14
79.34
85.71
93.76
103.00
112.62
121.73
129.77
136.75
143.30
150.75
157.77
166.64
177.95
191.79
206.97
220.57
228.25
225.36
208.53
176.87
132.76
80.05
23.07
-34.94
-92.44
-149.16
-205.23
-260.37
-313.74
-363.87
-409.83
-450.91
-486.50
-515.74
-537.23
-549.22
-549.96
-538.37
-514.21
-478.67
-433.88
-382.45
-327.02
-269.84
-212.63
-156.66
-102.95
-52.37
-5.90
35.58
71.43
101.35
125.50
144.38
158.69
169.15
176.37
180.75
182.57
182.07
179.51
175.23
169.65
163.18
156.15
148.81
141.30
133.69
126.02
118.33
110.69
103.16
95.80
88.68
81.83
75.25
68.95
62.95
57.25
51.86
46.78
42.03
37.59
33.45
29.61
26.07
22.81
19.83
17.11
14.67
12.48
10.54
8.83
7.35
6.07
4.97
4.05
3.27
2.62
2.09
1.65
1.30
1.01
0.79
0.61
0.47
0.37
0.28
0.23
0.18
0.15
0.13
0.13
0.13
0.14
0.16
0.18
0.21
0.24
0.28
0.32
0.36
0.41
0.46
0.50
0.55
0.60
0.66
0.71
0.77
0.84
0.91
0.99
1.07
1.17
1.28
1.40
1.54
1.69
1.86
2.05
2.26
2.50
2.75
3.04
3.36
3.70
4.08
4.49
4.94
5.42
5.94
6.50
7.10
7.75
8.44
9.17
9.94
10.77
11.63
12.54
13.50
14.52
15.60
16.75
17.95
19.21
20.49
21.75
22.92
23.92
24.63
24.91
24.67
23.78
22.19
19.87
16.84
13.18
9.03
4.57
0.01
-4.42
-8.53
-12.12
-15.05
-17.23
-18.63
-19.26
-19.23
-18.65
-17.65
-16.38
-14.94
-13.42
-11.87
-10.29
-8.68
-7.09
-5.55
-4.05
-2.60
-1.16
0.32
1.90
3.61
5.53
7.53
9.53
11.46
13.31
15.09
16.89
18.80
20.96
23.49
26.16
28.81
31.30
33.57
35.69
37.80
40.11
42.83
46.17
49.69
53.03
55.93
58.22
60.00
61.47
62.98
64.83
67.23
69.49
70.97
71.03
69.13
64.93
58.17
48.42
34.58
19.55
3.86
-12.50
-29.76
-48.23
-68.20
-89.97
-113.61
-138.73
-164.07
-188.21
-209.07
-224.76
-234.28
-237.87
-236.65
-231.94
-224.61
-214.85
-203.04
-189.61
-175.31
-160.98
-147.04
-133.11
-118.23
-101.47
-82.60
-62.80
-43.97
-27.97
-15.87
-7.37
-0.86
6.00
15.44
28.79
45.86
65.18
84.48
101.45
114.37
122.52
126.12
126.03
123.31
118.87
113.44
107.54
101.54
95.73
90.29
85.26
80.60
76.05
71.30
66.02
60.06
53.53
46.86
40.66
35.51
31.70
29.14
27.45
26.20
25.14
24.29
23.93
24.31
25.45
27.08
28.65
29.58
29.43
28.06
25.66
22.60
19.33
16.24
13.72
12.08
11.61
12.45
14.47
17.34
20.58
23.72
26.53
28.93
30.93
32.42
33.19
32.95
31.54
29.06
25.95
22.79
20.15
18.40
17.62
17.67
18.24
19.02
19.84
20.68
21.67
23.02
24.86
27.07
29.32
31.18
32.40
33.12
33.89
35.51
38.57
43.09
48.39
53.37
57.00
58.92
59.73
60.80
63.66
69.40
78.16
89.15
100.87
111.50
119.11
122.04
119.27
110.96
98.78
85.66
74.78
68.07
64.96
62.24
55.35
40.45
16.29
-15.12
-49.50
-82.17
-109.93
-132.10
-150.05
-166.08
-181.90
-197.57
-211.50
-221.10
-223.93
-218.62
-205.46
-186.59
-165.82
-148.03
-138.12
-139.77
-154.21
-179.67
-211.66
-244.41
-272.39
-291.90
-301.36
-300.86
-291.15
-272.87
-246.63
-213.51
-175.62
-136.04
-98.01
-63.81
-34.02
-7.51
17.78
43.82
71.57
100.62
129.42
155.70
176.93
190.82
195.78
191.36
178.58
159.88
138.56
117.71
99.19
83.12
68.19
52.57
34.99
15.32
-5.58
-26.42
-46.11
-64.01
-79.80
-93.02
-102.96
-108.68
-109.51
-105.55
-97.81
-88.05
-78.19
-69.64
-62.93
-57.71
-53.06
-48.09
-42.37
-36.11
-29.91
-24.46
-20.18
-17.14
-15.13
-13.93
-13.36
-13.22
-13.18
-12.42
-10.03
-4.99
3.22
14.44
27.87
42.46
57.33
71.87
85.50
97.31
105.91
109.93
108.70
102.89
94.42
85.78
78.96
74.74
72.60
71.39
70.16
68.59
67.00
65.81
65.10
64.40
63.02
60.47
56.72
52.25
47.73
43.85
40.86
38.62
36.59
34.12
30.71
26.25
21.08
15.85
11.27
7.72
5.18
3.23
1.24
-1.34
-4.82
-9.21
-14.28
-19.55
-24.30
-27.66
-28.66
-26.60
-21.27
-13.14
-3.25
7.10
16.74
24.94
31.48
36.49
40.25
42.96
44.63
45.24
44.76
43.37
41.42
39.40
37.77
36.76
36.31
36.09
35.70
34.81
33.33
31.36
29.10
26.73
24.34
21.87
19.19
16.21
12.91
9.40
5.89
2.57
-0.47
-3.29
-6.06
-9.03
-12.36
-16.10
-20.24
-24.79
-29.76
-35.10
-40.51
-45.32
-48.52
-49.11
-46.39
-40.42
-31.98
-22.36
-12.95
-4.74
1.84
6.91
10.85
14.06
16.69
18.71
19.98
20.49
20.38
20.00
19.70
19.73
20.11
20.64
21.07
21.23
21.05
20.60
19.89
18.90
17.54
15.77
13.63
11.26
8.88
6.62
4.53
2.49
0.30
-2.20
-5.11
-8.37
-11.75
-15.02
-18.03
-20.77
-23.48
-26.44
-29.90
-33.95
-38.36
-42.68
-46.24
-48.26
-47.99
-44.90
-38.91
-30.44
-20.40
-9.94
-0.11
8.42
15.42
21.01
25.43
28.82
31.21
32.58
32.98
32.68
32.02
31.40
31.13
31.29
31.80
32.42
32.85
32.84
32.24
31.11
29.57
27.79
25.83
23.64
21.12
18.18
14.83
11.19
7.39
3.59
-0.14
-3.73
-7.17
-10.46
-13.72
-17.19
-21.12
-25.69
-30.81
-36.06
-40.66
-43.69
-44.33
-42.12
-37.07
-29.69
-20.88
-11.65
-2.92
4.74
11.11
16.31
20.56
24.05
26.82
28.74
29.69
29.62
28.68
27.22
25.72
24.61
24.11
24.28
24.91
25.75
26.54
27.05
27.10
26.58
25.41
23.58
21.18
18.36
15.32
12.24
9.20
6.16
3.02
-0.33
-3.82
-7.20
-10.15
-12.37
-13.82
-14.78
-15.92
-17.94
-21.38
-26.24
-31.85
-36.94
-40.05
-39.97
-36.19
-29.10
-19.82
-9.82
-0.39
7.69
14.21
19.41
23.68
27.32
30.45
33.06
35.09
36.52
37.39
37.76
37.71
37.28
36.49
35.39
34.10
32.86
31.94
31.48
31.44
31.49
31.16
29.94
27.55
23.85
19.00
13.25
6.92
0.40
-5.92
-11.71
-16.75
-21.05
-24.76
-28.13
-31.41
-34.82
-38.70
-43.54
-50.01
-58.66
-69.60
-82.21
-95.07
-106.33
-114.18
-117.35
-115.43
-108.81
-98.55
-85.99
-72.53
-59.40
-47.55
-37.48
-29.30
-22.78
-17.44
-12.78
-8.34
-3.84
0.87
5.80
10.81
15.68
20.03
23.53
25.94
27.21
27.55
27.26
26.65
25.87
24.97
23.89
22.66
21.30
19.95
18.71
17.64
16.71
15.84
14.91
13.77
12.29
10.34
7.86
4.81
1.20
-2.99
-7.79
-13.10
-18.61
-23.72
-27.55
-29.18
-27.99
-23.90
-17.38
-9.38
-0.96
6.92
13.70
19.17
23.42
26.65
29.04
30.68
31.62
31.95
31.83
31.49
31.18
31.06
31.18
31.41
31.61
31.66
31.50
31.11
30.48
29.52
28.12
26.21
23.77
20.95
18.00
15.08
12.32
9.61
6.78
3.65
0.19
-3.44
-7.01
-10.24
-13.04
-15.53
-17.99
-20.83
-24.39
-28.86
-34.11
-39.66
-44.66
-48.10
-49.03
-46.84
-41.49
-33.53
-23.94
-13.96
-4.74
2.87
8.39
11.85
13.68
14.51
15.03
15.71
16.69
17.84
18.89
19.57
19.77
19.50
18.83
17.87
16.73
15.57
14.57
13.91
13.61
13.55
13.40
12.79
11.46
9.34
6.62
3.70
1.01
-1.13
-2.67
-3.83
-4.99
-6.53
-8.61
-11.12
-13.77
-16.24
-18.37
-20.23
-22.11
-24.40
-27.41
-31.25
-35.69
-40.15
-43.77
-45.58
-44.72
-40.78
-33.96
-25.05
-15.28
-5.87
2.26
8.71
13.57
17.18
19.96
22.18
23.90
25.12
25.81
26.07
26.12
26.16
26.34
26.68
27.08
27.37
27.39
27.05
26.28
25.07
23.45
21.49
19.27
16.95
14.68
12.57
10.61
8.73
6.74
4.50
1.93
-0.95
-4.01
-7.08
-9.97
-12.60
-15.05
-17.58
-20.55
-24.22
-28.57
-33.11
-36.92
-38.97
-38.40
-34.87
-28.69
-20.67
-11.89
-3.35
4.18
10.29
14.90
18.15
20.30
21.61
22.32
22.60
22.56
22.30
21.97
21.71
21.69
21.97
22.46
22.95
23.19
23.02
22.44
21.59
20.64
19.64
18.49
16.98
14.93
12.34
9.36
6.13
2.63
-1.33
-5.97
-11.30
-16.95
-22.22
-26.46
-29.38
-31.30
-33.06
-35.57
-39.40
-44.41
-49.75
-54.11
-56.20
-55.15
-50.74
-43.42
-34.09
-23.85
-13.70
-4.42
3.48
9.73
14.19
16.91
18.14
18.32
18.01
17.72
17.75
18.10
18.59
18.98
19.14
19.01
18.65
18.07
17.29
16.32
15.19
14.01
12.86
11.75
10.60
9.34
7.91
6.35
4.72
3.04
1.27
-0.73
-3.08
-5.81
-8.82
-11.87
-14.70
-17.14
-19.20
-21.10
-23.28
-26.18
-30.17
-35.26
-41.09
-46.85
-51.45
-53.88
-53.39
-49.76
-43.38
-35.10
-26.04
-17.31
-9.76
-3.77
0.70
4.05
6.71
8.97
10.85
12.21
12.96
13.20
13.26
13.49
14.03
14.77
15.42
15.74
15.72
15.56
15.44
15.37
15.15
14.49
13.19
11.29
9.06
6.81
4.73
2.87
1.18
-0.46
-2.12
-3.92
-5.91
-8.09
-10.49
-13.02
-15.59
-18.16
-20.79
-23.65
-26.96
-30.84
-35.16
-39.47
-43.09
-45.17
-45.00
-42.13
-36.53
-28.64
-19.24
-9.24
0.52
9.44
17.23
23.81
29.20
33.39
36.27
37.74
37.83
36.85
35.36
34.00
33.33
33.53
34.38
35.42
36.11
36.14
35.38
33.92
31.89
29.38
26.45
23.12
19.46
15.56
11.55
7.60
3.84
0.38
-2.79
-5.79
-8.88
-12.30
-16.26
-20.80
-25.82
-31.05
-36.03
-40.12
-42.56
-42.61
-39.86
-34.41
-26.94
-18.43
-9.87
-1.90
5.21
11.48
16.97
21.57
25.07
27.25
28.03
27.58
26.25
24.52
22.87
21.69
21.16
21.27
21.81
22.40
22.67
22.35
21.37
19.82
17.95
15.96
13.95
11.87
9.53
6.76
3.50
-0.17
-4.05
-7.93
-11.67
-15.29
-18.90
-22.70
-26.91
-31.75
-37.28
-43.39
-49.60
-55.10
-58.78
-59.60
-56.87
-50.56
-41.42
-30.69
-19.75
-9.71
-1.15
5.96
11.91
17.08
21.58
25.32
28.05
29.68
30.31
30.31
30.14
30.13
30.47
31.13
31.98
32.85
33.57
33.97
33.85
33.06
31.58
29.54
27.17
24.76
22.48
20.38
18.32
16.10
13.48
10.29
6.43
1.94
-2.97
-7.99
-12.86
-17.52
-22.17
-27.23
-33.05
-39.41
-45.50
-49.84
-50.84
-47.35
-39.11
-26.83
-12.01
3.52
17.81
29.07
35.96
37.76
34.65
27.82
19.14
10.65
3.93
-0.29
-2.17
-2.38
-1.73
-0.74
0.41
1.77
3.42
5.31
7.14
8.51
9.12
8.89
8.02
7.03
6.37
6.19
6.29
6.16
5.35
3.65
1.13
-2.02
-5.62
-9.65
-14.20
-19.30
-24.76
-30.11
-34.64
-37.57
-38.20
-36.16
-31.57
-25.06
-17.57
-10.12
-3.46
2.03
6.38
9.88
12.83
15.42
17.64
19.29
20.04
19.66
18.19
16.05
13.98
12.73
12.72
13.75
15.15
16.05
15.88
14.61
12.70
10.78
9.28
8.19
7.16
5.74
3.65
0.95
-2.09
-5.17
-8.10
-10.89
-13.72
-16.79
-20.30
-24.31
-28.73
-33.26
-37.41
-40.52
-41.90
-41.00
-37.62
-31.95
-24.56
-16.21
-7.66
0.41
7.60
13.70
18.77
22.90
26.19
28.65
30.25
30.97
30.90
30.33
29.65
29.26
29.38
29.90
30.48
30.67
30.17
28.98
27.36
25.65
24.02
22.40
20.52
18.11
15.04
11.46
7.68
4.01
0.67
-2.34
-5.12
-7.87
-10.87
-14.34
-18.44
-23.18
-28.33
-33.46
-37.97
-41.19
-42.46
-41.29
-37.50
-31.29
-23.33
-14.58
-6.18
0.98
6.42
10.21
12.82
14.87
16.84
18.88
20.83
22.39
23.27
23.41
23.01
22.41
22.01
22.01
22.41
23.03
23.63
24.01
24.08
23.84
23.25
22.29
20.91
19.13
17.09
14.99
12.97
11.00
8.89
6.40
3.47
0.29
-2.76
-5.34
-7.32
-8.88
-10.40
-12.28
-14.77
-17.84
-21.22
-24.41
-26.78
-27.67
-26.59
-23.29
-17.77
-10.26
-1.03
9.68
21.53
34.02
46.34
57.55
66.84
73.92
79.26
83.89
89.11
96.11
105.70
118.25
133.70
151.46
170.29
188.15
202.44
210.51
210.46
201.79
185.45
163.26
136.85
106.87
73.21
35.94
-3.38
-40.89
-71.06
-88.45
-89.70
-74.95
-47.61
-13.15
22.66
55.01
80.61
97.49
104.85
102.83
92.41
75.00
52.08
24.79
-5.93
-38.86
-72.13
-103.33
-130.16
-151.16
-166.04
-175.42
-179.98
-179.97
-175.12
-165.24
-150.55
-131.83
-109.94
-85.51
-58.94
-30.99
-3.30
21.64
41.25
54.17
61.14
65.01
69.53
77.59
89.65
103.30
114.06
117.35
110.49
93.92
71.17
47.56
28.26
16.33
11.58
10.66
8.46
0.26
-16.20
-39.68
-65.74
-88.79
-104.46
-111.66
-112.99
-113.39
-117.62
-128.04
-143.89
-162.30
-180.35
-196.76
-212.39
-229.20
-248.53
-269.62
-289.37
-303.50
-308.42
-302.95
-288.68
-269.00
-247.40
-225.88
-204.50
-182.11
-157.69
-131.39
-104.72
-79.80
-58.14
-39.91
-23.70
-7.16
12.20
35.90
63.79
93.53
120.72
140.01
146.66
138.52
117.04
86.86
54.27
25.02
2.89
-10.51
-14.92
-10.51
2.32
22.34
46.89
71.93
93.16
107.52
114.28
114.97
112.23
108.51
105.12
102.35
100.01
98.00
96.37
95.07
93.71
91.59
88.11
83.21
77.52
72.16
68.43
67.45
70.07
76.49
86.07
97.21
107.66
115.14
118.14
116.37
110.41
100.89
87.95
71.29
51.11
28.92
7.55
-9.91
-21.96
-29.92
-38.00
-51.89
-76.65
-114.79
-165.41
-224.18
-284.31
-337.72
-376.49
-394.42
-388.38
-359.39
-312.48
-255.55
-197.24
-144.95
-103.36
-74.10
-56.23
-47.12
-43.44
-41.85
-39.52
-34.47
-25.85
-13.89
0.20
14.59
27.51
37.72
44.95
49.79
53.35
56.67
60.37
64.43
68.35
71.51
73.37
73.76
72.90
71.34
69.80
68.91
69.01
70.00
71.41
72.56
72.88
72.13
70.38
67.93
65.06
61.93
58.54
54.89
51.05
47.14
43.33
39.72
36.32
33.04
29.73
26.24
22.51
18.54
14.45
10.50
7.01
4.33
2.62
1.74
1.31
0.95
0.51
0.26
0.71
2.33
5.21
8.95
12.82
16.12
18.45
19.80
20.42
20.60
20.46
20.03
19.37
18.68
18.25
18.33
18.85
19.60
20.15
20.13
19.40
18.06
16.37
14.61
12.92
11.31
9.66
7.83
5.73
3.42
1.00
-1.44
-3.88
-6.39
-9.08
-12.10
-15.58
-19.59
-24.02
-28.56
-32.61
-35.40
-36.14
-34.36
-30.01
-23.48
-15.57
-7.18
0.86
7.96
13.76
18.11
21.06
22.76
23.56
23.84
23.97
24.25
24.77
25.49
26.27
26.95
27.37
27.41
26.94
25.87
24.20
22.06
19.66
17.29
15.14
13.16
11.12
8.68
5.67
2.17
-1.43
-4.66
-7.30
-9.47
-11.67
-14.52
-18.49
-23.62
-29.46
-35.23
-39.95
-42.71
-42.89
-40.23
-34.92
-27.52
-18.84
-9.80
-1.25
6.15
12.03
16.28
19.03
20.60
21.35
21.65
21.71
21.62
21.39
21.04
20.61
20.19
19.84
19.55
19.23
18.79
18.15
17.28
16.16
14.68
12.74
10.20
7.05
3.46
-0.24
-3.65
-6.44
-8.57
-10.35
-12.32
-15.11
-19.17
-24.51
-30.61
-36.48
-40.89
-42.75
-41.42
-36.95
-29.96
-21.49
-12.65
-4.35
2.80
8.53
12.82
15.79
17.73
18.86
19.41
19.50
19.22
18.62
17.76
16.74
15.62
14.44
13.21
11.97
10.84
9.93
9.24
8.56
7.46
5.52
2.48
-1.47
-5.84
-9.96
-13.29
-15.62
-17.08
-18.08
-19.05
-20.41
-22.40
-25.09
-28.28
-31.50
-34.10
-35.35
-34.62
-31.53
-26.01
-18.18
-8.44
2.63
14.21
25.32
34.97
42.34
47.00
49.00
48.85
47.27
45.06
42.87
41.16
40.17
39.99
40.63
42.04
44.09
46.41
48.39
49.16
47.84
43.82
37.09
28.37
18.85
9.85
2.32
-3.41
-7.63
-10.95
-14.09
-17.61
-21.98
-27.50
-34.16
-41.59
-48.72
-54.00
-55.77
-52.93
-45.38
-34.16
-21.08
-7.89
4.25
14.95
24.36
32.58
39.32
43.95
45.79
44.60
40.85
35.65
30.33
26.11
23.64
22.87
23.26
24.00
24.40
24.21
23.54
22.76
22.12
21.57
20.69
18.97
16.16
12.40
8.30
4.59
1.77
-0.12
-1.48
-2.98
-5.28
-8.84
-13.85
-20.21
-27.51
-34.99
-41.58
-46.07
-47.44
-45.09
-39.15
-30.41
-20.08
-9.45
0.39
8.74
15.26
19.90
22.78
24.14
24.22
23.35
21.85
20.04
18.19
16.54
15.28
14.52
14.28
14.47
14.86
15.14
14.97
14.03
12.16
9.37
5.91
2.09
-1.69
-5.12
-8.00
-10.31
-12.22
-14.05
-16.32
-19.56
-24.10
-29.94
-36.46
-42.54
-46.73
-47.73
-44.85
-38.27
-29.05
-18.68
-8.62
0.17
7.39
13.13
17.67
21.13
23.49
24.73
25.02
24.72
24.25
23.92
23.70
23.35
22.54
21.12
19.16
16.97
14.87
13.12
11.77
10.62
9.32
7.49
4.90
1.55
-2.29
-6.18
-9.68
-12.55
-14.91
-17.13
-19.71
-23.10
-27.56
-33.05
-39.22
-45.34
-50.41
-53.25
-52.85
-48.68
-41.01
-30.81
-19.46
-8.39
1.43
9.56
16.09
21.26
25.26
28.13
29.79
30.29
29.90
29.10
28.44
28.22
28.48
28.90
29.06
28.60
27.38
25.52
23.34
21.22
19.37
17.86
16.51
15.01
13.02
10.35
7.01
3.22
-0.72
-4.54
-8.08
-11.39
-14.65
-18.15
-22.20
-27.09
-32.83
-39.07
-45.04
-49.64
-51.75
-50.62
-46.08
-38.54
-28.94
-18.35
-7.80
1.87
10.10
16.60
21.32
24.43
26.23
27.07
27.25
27.06
26.73
26.51
26.66
27.27
28.17
29.03
29.40
28.96
27.64
25.66
23.33
20.92
18.63
16.49
14.54
12.78
11.18
9.59
7.74
5.36
2.29
-1.39
-5.37
-9.26
-12.71
-15.55
-17.93
-20.24
-23.04
-26.81
-31.67
-37.23
-42.52
-46.24
-47.12
-44.44
-38.18
-29.11
-18.46
-7.62
2.23
10.32
16.33
20.33
22.67
23.82
24.15
23.93
23.33
22.48
21.56
20.79
20.35
20.27
20.42
20.59
20.53
20.15
19.40
18.33
16.96
15.27
13.27
11.01
8.61
6.19
3.86
1.66
-0.46
-2.52
-4.57
-6.65
-8.84
-11.20
-13.76
-16.50
-19.34
-22.21
-25.07
-27.98
-30.93
-33.80
-36.16
-37.39
-36.81
-33.94
-28.73
-21.60
-13.35
-4.86
3.04
9.85
15.26
19.18
21.59
22.54
22.18
20.75
18.67
16.37
14.35
12.97
12.47
12.87
13.94
15.34
16.68
17.63
18.00
17.76
16.99
15.78
14.21
12.35
10.30
8.23
6.31
4.64
3.17
1.66
-0.18
-2.59
-5.58
-8.93
-12.38
-15.66
-18.76
-21.77
-24.82
-27.88
-30.66
-32.64
-33.22
-31.84
-28.23
-22.49
-15.16
-7.04
0.95
7.95
13.43
17.13
19.13
19.63
18.90
17.23
14.96
12.51
10.35
8.91
8.39
8.72
9.52
10.29
10.64
10.39
9.66
8.69
7.72
6.80
5.87
4.73
3.24
1.33
-0.95
-3.56
-6.42
-9.37
-12.25
-14.82
-16.96
-18.84
-20.90
-23.70
-27.61
-32.53
-37.82
-42.48
-45.48
-46.06
-44.00
-39.47
-33.06
-25.44
-17.33
-9.38
-2.10
4.10
8.94
12.26
14.06
14.52
13.99
12.93
11.86
11.11
10.84
10.97
11.25
11.44
11.35
10.93
10.20
9.21
8.01
6.66
5.17
3.46
1.46
-0.97
-3.83
-6.96
-10.07
-12.79
-14.90
-16.41
-17.60
-18.94
-20.92
-23.91
-27.94
-32.71
-37.50
-41.39
-43.44
-42.97
-39.73
-34.02
-26.58
-18.34
-10.20
-2.86
3.28
8.03
11.35
13.36
14.25
14.33
13.97
13.50
13.17
13.03
12.97
12.85
12.54
12.04
11.41
10.74
10.03
9.26
8.39
7.34
6.07
4.47
2.41
-0.23
-3.42
-6.93
-10.37
-13.33
-15.56
-17.19
-18.69
-20.68
-23.68
-27.84
-32.84
-37.95
-42.25
-44.77
-44.78
-41.93
-36.34
-28.63
-19.77
-10.88
-2.93
3.53
8.36
11.82
14.25
15.96
17.12
17.79
18.05
17.98
17.76
17.51
17.28
17.10
16.91
16.69
16.41
16.04
15.59
15.01
14.18
12.95
11.10
8.47
5.06
1.15
-2.76
-6.06
-8.39
-9.85
-11.11
-13.14
-16.76
-22.25
-29.10
-36.09
-41.66
-44.43
-43.55
-38.95
-31.26
-21.65
-11.47
-1.97
6.01
12.17
16.64
19.86
22.18
23.85
24.91
25.36
25.25
24.77
24.20
23.78
23.62
23.67
23.75
23.68
23.27
22.48
21.30
19.77
17.90
15.70
13.11
10.02
6.35
2.15
-2.43
-7.05
-11.42
-15.26
-18.53
-21.46
-24.50
-28.21
-33.05
-39.06
-45.58
-51.35
-54.69
-54.09
-48.73
-38.85
-25.54
-10.36
5.20
19.79
32.17
41.16
45.74
45.48
40.95
33.76
26.09
19.94
16.38
15.40
16.17
17.72
19.33
20.72
21.82
22.61
22.89
22.52
21.48
19.98
18.38
16.96
15.88
14.96
13.82
11.99
9.18
5.41
1.03
-3.43
-7.45
-10.82
-13.71
-16.57
-20.01
-24.40
-29.81
-35.77
-41.36
-45.45
-46.94
-45.15
-39.99
-32.03
-22.32
-12.08
-2.37
6.12
13.12
18.71
23.09
26.47
28.95
30.61
31.51
31.85
31.95
32.07
32.35
32.69
32.87
32.62
31.85
30.66
29.27
27.84
26.37
24.72
22.65
20.02
16.80
13.14
9.29
5.45
1.81
-1.60
-4.81
-7.95
-11.19
-14.70
-18.67
-23.19
-28.21
-33.45
-38.37
-42.15
-43.90
-42.87
-38.77
-31.84
-22.92
-13.17
-3.72
4.60
11.43
16.82
21.00
24.20
26.52
27.97
28.62
28.64
28.36
28.11
28.15
28.49
28.99
29.40
29.49
29.19
28.49
27.44
26.07
24.41
22.43
20.18
17.73
15.17
12.53
9.76
6.76
3.43
-0.27
-4.26
-8.37
-12.35
-15.96
-19.05
-21.63
-23.91
-26.36
-29.51
-33.76
-39.12
-45.00
-50.27
-53.56
-53.68
-50.06
-42.88
-33.03
-21.81
-10.52
-0.18
8.64
15.81
21.45
25.79
29.00
31.19
32.47
32.97
32.96
32.76
32.65
32.75
32.94
32.97
32.61
31.76
30.49
28.94
27.23
25.34
23.22
20.80
18.12
15.25
12.29
9.21
5.96
2.42
-1.42
-5.50
-9.61
-13.58
-17.32
-20.88
-24.47
-28.32
-32.66
-37.59
-42.90
-48.07
-52.26
-54.44
-53.72
-49.57
-42.07
-31.90
-20.23
-8.34
2.65
11.99
19.34
24.70
28.19
30.02
30.45
29.82
28.63
27.46
26.84
27.01
27.90
29.07
30.02
30.34
29.93
28.96
27.79
26.69
25.73
24.74
23.38
21.35
18.49
14.86
10.75
6.57
2.66
-0.76
-3.75
-6.56
-9.59
-13.23
-17.70
-22.92
-28.49
-33.63
-37.31
-38.50
-36.44
-30.93
-22.50
-12.28
-1.68
8.04
16.15
22.51
27.33
30.88
33.21
34.19
33.68
31.82
29.11
26.27
23.99
22.62
22.12
22.12
22.21
22.07
21.63
20.89
19.91
18.65
17.00
14.79
11.94
8.43
4.42
0.13
-4.14
-8.15
-11.81
-15.09
-18.15
-21.21
-24.51
-28.27
-32.62
-37.52
-42.66
-47.41
-50.94
-52.28
-50.67
-45.79
-37.88
-27.79
-16.66
-5.70
4.11
12.23
18.52
23.10
26.18
27.92
28.46
27.93
26.63
25.03
23.68
23.08
23.38
24.36
25.42
25.90
25.30
23.52
20.90
18.01
15.35
13.12
11.22
9.33
7.14
4.45
1.23
-2.41
-6.36
-10.42
-14.37
-17.97
-21.09
-23.78
-26.30
-29.07
-32.46
-36.76
-41.95
-47.72
-53.44
-58.20
-60.99
-60.86
-57.27
-50.25
-40.48
-29.13
-17.56
-6.95
1.91
8.76
13.77
17.33
19.89
21.77
23.17
24.11
24.61
24.81
24.92
25.19
25.80
26.72
27.76
28.61
29.01
28.79
27.92
26.43
24.42
22.04
19.50
17.12
15.14
13.70
12.72
11.88
10.78
9.03
6.46
3.10
-0.84
-5.08
-9.46
-13.96
-18.78
-24.15
-30.14
-36.43
-42.26
-46.50
-48.03
-46.07
-40.52
-31.94
-21.41
-10.23
0.45
9.76
17.20
22.55
25.85
27.31
27.29
26.23
24.57
22.77
21.13
19.88
19.13
18.92
19.19
19.80
20.55
21.15
21.37
21.06
20.19
18.83
17.05
14.88
12.29
9.23
5.73
1.93
-1.98
-5.77
-9.34
-12.64
-15.68
-18.44
-20.89
-23.06
-25.09
-27.29
-30.14
-34.00
-39.04
-44.88
-50.68
-55.20
-57.18
-55.72
-50.61
-42.43
-32.32
-21.64
-11.59
-2.90
4.15
9.66
13.84
16.88
18.88
20.01
20.46
20.50
20.31
19.97
19.48
18.81
18.11
17.64
17.69
18.34
19.36
20.26
20.51
19.84
18.30
16.25
14.06
11.95
9.89
7.69
5.18
2.33
-0.73
-3.85
-6.87
-9.76
-12.59
-15.41
-18.27
-21.17
-24.16
-27.30
-30.77
-34.64
-38.77
-42.64
-45.38
-45.99
-43.69
-38.21
-30.00
-20.12
-9.91
-0.64
6.89
12.49
16.45
19.32
21.53
23.29
24.53
25.14
25.12
24.69
24.25
24.16
24.57
25.33
26.03
26.28
25.82
24.63
22.91
20.88
18.71
16.49
14.25
12.04
9.95
8.05
6.30
4.50
2.38
-0.25
-3.46
-7.08
-10.82
-14.37
-17.51
-20.20
-22.59
-25.01
-27.88
-31.53
-35.96
-40.72
-44.81
-47.01
-46.16
-41.65
-33.67
-23.14
-11.43
0.18
10.79
20.08
28.10
35.07
41.11
46.14
50.03
52.86
54.98
57.05
59.76
63.58
68.54
74.23
80.03
85.43
90.38
95.27
100.84
107.68
115.97
125.31
134.91
143.97
152.06
159.24
165.99
173.04
181.22
191.44
204.63
221.30
240.84
261.06
278.30
288.31
287.78
275.61
253.37
224.59
193.41
163.06
135.11
109.58
85.51
61.82
37.60
12.30
-14.38
-42.65
-72.45
-103.53
-135.44
-167.81
-200.47
-233.88
-269.28
-308.40
-352.71
-402.18
-454.32
-503.93
-544.17
-568.64
-573.46
-558.62
-527.68
-486.27
-440.19
-394.01
-350.65
-311.82
-278.54
-251.26
-229.74
-212.75
-198.23
-183.83
-167.58
-148.25
-125.37
-99.15
-70.53
-41.22
-13.54
9.91
27.29
38.12
43.48
45.51
46.29
47.15
48.37
49.79
51.50
54.30
59.37
67.57
78.70
91.39
103.60
113.55
120.33
124.11
125.80
126.56
127.09
127.53
127.57
126.83
125.16
122.87
120.60
119.01
118.53
119.11
120.42
121.94
123.30
124.37
125.17
125.74
125.90
125.32
123.51
119.96
114.28
106.23
95.86
83.58
70.14
56.57
43.85
32.60
22.83
13.94
4.97
-4.98
-16.41
-29.25
-42.92
-56.50
-68.96
-79.27
-86.50
-89.91
-89.18
-84.56
-76.95
-67.84
-58.98
-52.00
-48.01
-47.38
-49.84
-54.62
-60.77
-67.33
-73.42
-78.23
-81.01
-81.19
-78.49
-73.01
-65.28
-56.03
-46.07
-36.02
-26.27
-17.04
-8.45
-0.66
6.19
12.00
16.85
20.95
24.57
27.92
31.05
33.78
35.80
36.70
36.19
34.20
31.04
27.26
23.57
20.51
18.21
16.39
14.51
12.06
8.75
4.42
-1.06
-7.77
-15.49
-23.46
-30.19
-33.88
-33.16
-27.77
-18.84
-8.47
1.19
8.71
13.77
16.92
19.01
20.68
22.23
23.71
25.25
27.12
29.64
32.96
37.09
41.66
46.23
50.44
54.11
57.34
60.42
63.68
67.32
71.30
75.26
78.70
81.12
82.16
81.58
79.35
75.54
70.41
64.35
57.87
51.53
45.77
40.79
36.40
32.08
27.07
20.54
11.86
0.66
-13.01
-28.68
-45.51
-62.27
-77.55
-89.94
-98.22
-101.69
-100.25
-94.46
-85.42
-74.44
-62.78
-51.41
-40.94
-31.68
-23.77
-17.23
-11.95
-7.73
-4.28
-1.19
1.91
5.33
9.15
13.29
17.47
21.36
24.70
27.30
29.14
30.29
30.80
30.74
30.14
29.06
27.64
26.06
24.53
23.13
21.77
20.17
17.98
14.96
11.09
6.67
2.18
-1.91
-5.30
-7.96
-10.09
-12.07
-14.34
-17.33
-21.37
-26.60
-32.84
-39.44
-45.30
-49.01
-49.35
-45.61
-37.99
-27.52
-15.81
-4.45
5.38
13.12
18.74
22.57
24.96
26.24
26.71
26.67
26.48
26.43
26.77
27.55
28.68
29.93
30.97
31.53
31.50
31.05
30.52
30.29
30.50
30.93
31.05
30.31
28.40
25.42
21.81
18.09
14.63
11.56
8.80
6.17
3.52
0.70
-2.37
-5.73
-9.34
-13.03
-16.60
-19.86
-22.81
-25.68
-28.86
-32.74
-37.55
-43.22
-49.26
-54.83
-58.87
-60.28
-58.28
-52.63
-43.76
-32.73
-20.91
-9.61
0.27
8.37
14.75
19.75
23.63
26.54
28.53
29.64
30.02
29.97
29.84
29.89
30.23
30.78
31.39
31.89
32.22
32.38
32.43
32.32
31.95
31.15
29.74
27.63
24.86
21.57
17.99
14.40
11.08
8.26
6.04
4.29
2.76
1.13
-0.85
-3.23
-5.89
-8.69
-11.55
-14.48
-17.59
-21.01
-24.80
-29.02
-33.71
-38.96
-44.78
-50.90
-56.69
-61.11
-62.94
-61.15
-55.27
-45.70
-33.60
-20.58
-8.24
2.32
10.65
16.86
21.28
24.20
25.81
26.18
25.60
24.55
23.57
23.16
23.47
24.38
25.54
26.65
27.58
28.33
28.99
29.53
29.83
29.68
28.78
26.93
24.04
20.25
15.85
11.34
7.16
3.58
0.65
-1.84
-4.21
-6.71
-9.49
-12.58
-15.91
-19.38
-22.91
-26.43
-29.97
-33.72
-37.98
-43.12
-49.29
-56.21
-63.07
-68.61
-71.44
-70.40
-64.99
-55.54
-43.14
-29.37
-15.84
-3.78
6.19
14.10
20.35
25.43
29.68
33.12
35.64
37.14
37.76
37.87
38.00
38.51
39.45
40.49
41.08
40.81
39.60
37.78
35.93
34.49
33.61
32.98
32.15
30.72
28.62
26.15
23.68
21.42
19.15
16.39
12.67
7.91
2.66
-2.18
-5.74
-7.66
-8.33
-8.67
-9.79
-12.41
-16.70
-22.25
-28.26
-33.65
-37.21
-37.84
-34.82
-28.24
-19.20
-9.63
-1.66
3.11
4.20
2.23
-1.50
-5.60
-9.22
-11.96
-13.81
-14.74
-14.58
-12.90
-9.28
-3.71
3.11
9.69
14.13
14.85
11.38
4.72
-2.97
-9.28
-12.60
-12.76
-10.94
-8.81
-7.61
-7.63
-8.25
-8.60
-8.25
-7.42
-6.80
-7.10
-8.57
-11.00
-13.95
-17.01
-20.07
-23.30
-26.87
-30.67
-34.16
-36.42
-36.47
-33.57
-27.59
-19.11
-9.24
0.62
9.26
15.97
20.57
23.41
25.01
25.84
26.15
26.07
25.69
25.14
24.62
24.26
24.08
24.00
23.86
23.59
23.17
22.67
22.11
21.45
20.57
19.33
17.57
15.19
12.12
8.40
4.21
-0.15
-4.34
-8.09
-11.33
-14.16
-16.83
-19.61
-22.73
-26.39
-30.72
-35.69
-40.96
-45.76
-49.00
-49.55
-46.71
-40.49
-31.68
-21.57
-11.51
-2.47
5.14
11.36
16.49
20.78
24.37
27.19
29.14
30.14
30.21
29.55
28.46
27.32
26.40
25.85
25.57
25.37
25.03
24.39
23.47
22.34
21.06
19.64
17.96
15.88
13.31
10.28
6.93
3.46
0.05
-3.26
-6.55
-9.96
-13.67
-17.75
-22.23
-27.08
-32.33
-37.98
-43.87
-49.47
-53.80
-55.65
-54.03
-48.60
-39.90
-29.22
-18.08
-7.70
1.30
8.90
15.34
20.81
25.29
28.61
30.71
31.74
32.09
32.23
32.46
32.83
33.18
33.30
33.11
32.79
32.59
32.75
33.19
33.56
33.35
32.10
29.66
26.20
22.24
18.27
14.68
11.58
8.79
6.04
3.09
-0.15
-3.61
-7.19
-10.81
-14.51
-18.39
-22.52
-26.89
-31.44
-36.18
-41.19
-46.52
-52.01
-57.08
-60.67
-61.56
-58.82
-52.23
-42.44
-30.80
-18.84
-7.81
1.63
9.45
15.93
21.39
25.96
29.57
32.06
33.42
33.82
33.66
33.37
33.28
33.53
34.02
34.55
34.93
35.04
34.88
34.53
33.99
33.19
31.92
30.03
27.45
24.35
21.10
18.04
15.37
13.03
10.73
8.09
4.83
0.91
-3.47
-7.98
-12.29
-16.20
-19.70
-23.02
-26.52
-30.61
-35.61
-41.50
-47.82
-53.59
-57.49
-58.20
-54.88
-47.48
-36.84
-24.43
-11.91
-0.62
8.69
15.90
21.27
25.21
28.04
29.97
31.14
31.67
31.68
31.33
30.71
29.92
29.05
28.22
27.53
27.04
26.78
26.65
26.59
26.50
26.29
25.90
25.17
23.96
22.11
19.58
16.40
12.58
8.06
2.70
-3.57
-10.55
-17.61
-23.80
-28.17
-30.18
-29.97
-28.38
-26.62
-25.86
-26.86
-29.87
-34.62
-40.48
-46.59
-51.94
-55.46
-56.22
-53.57
-47.43
-38.25
-26.98
-14.79
-2.79
8.19
17.64
25.29
31.04
34.90
37.00
37.59
37.08
35.98
34.77
33.79
33.15
32.83
32.66
32.55
32.48
32.43
32.42
32.36
32.09
31.40
30.14
28.28
25.88
23.09
20.06
16.87
13.49
9.83
5.77
1.22
-3.89
-9.44
-15.21
-20.85
-25.95
-30.26
-33.74
-36.70
-39.65
-43.12
-47.42
-52.46
-57.60
-61.74
-63.60
-62.10
-56.72
-47.87
-36.70
-24.82
-13.70
-4.25
3.36
9.47
14.55
18.88
22.42
25.01
26.58
27.34
27.69
28.05
28.58
29.19
29.63
29.68
29.26
28.47
27.41
26.18
24.81
23.38
21.96
20.72
19.76
19.04
18.29
17.16
15.29
12.56
9.04
5.00
0.77
-3.36
-7.22
-10.75
-14.01
-17.12
-20.29
-23.74
-27.74
-32.43
-37.74
-43.23
-47.99
-50.84
-50.61
-46.57
-38.83
-28.30
-16.47
-4.95
5.03
12.85
18.46
22.14
24.26
25.07
24.74
23.48
21.59
19.53
17.81
16.79
16.66
17.30
18.41
19.60
20.53
20.98
20.85
20.11
18.81
17.03
14.84
12.31
9.42
6.08
2.21
-2.17
-6.86
-11.51
-15.74
-19.33
-22.28
-24.92
-27.71
-31.18
-35.73
-41.40
-47.76
-53.82
-58.28
-59.79
-57.41
-51.00
-41.30
-29.67
-17.71
-6.72
2.53
9.83
15.36
19.42
22.27
24.11
25.12
25.51
25.50
25.29
25.05
24.84
24.66
24.48
24.30
24.13
23.98
23.84
23.62
23.18
22.34
20.99
19.10
16.75
14.04
11.07
7.87
4.44
0.83
-2.88
-6.56
-10.06
-13.32
-16.44
-19.59
-23.07
-27.18
-32.10
-37.79
-43.82
-49.30
-53.11
-54.08
-51.48
-45.24
-36.08
-25.20
-13.97
-3.47
5.71
13.37
19.68
24.83
28.96
32.06
34.04
34.87
34.69
33.81
32.66
31.66
31.01
30.72
30.64
30.67
30.72
30.77
30.71
30.31
29.25
27.31
24.46
20.92
16.99
12.93
8.83
4.70
0.57
-3.45
-7.21
-10.64
-13.83
-17.13
-20.92
-25.54
-31.06
-37.17
-43.18
-48.04
-50.62
-49.98
-45.72
-38.20
-28.41
-17.75
-7.56
1.22
8.20
13.48
17.39
20.27
22.28
23.41
23.64
23.00
21.81
20.50
19.48
19.01
18.98
19.04
18.78
18.00
16.76
15.33
13.98
12.77
11.49
9.74
7.16
3.66
-0.57
-5.06
-9.27
-12.88
-15.83
-18.37
-20.96
-24.05
-27.98
-32.86
-38.51
-44.42
-49.78
-53.54
-54.64
-52.28
-46.24
-37.07
-26.00
-14.57
-4.18
4.34
10.77
15.41
18.71
21.02
22.49
23.14
23.06
22.49
21.81
21.41
21.51
22.09
22.88
23.50
23.57
22.85
21.36
19.37
17.25
15.29
13.54
11.76
9.55
6.61
2.87
-1.41
-5.81
-9.98
-13.76
-17.22
-20.49
-23.71
-26.98
-30.35
-33.99
-38.10
-42.70
-47.55
-51.93
-54.79
-55.00
-51.78
-44.99
-35.24
-23.81
-12.23
-1.82
6.61
12.92
17.43
20.64
22.92
24.45
25.26
25.41
25.11
24.70
24.51
24.68
25.12
25.57
25.75
25.50
24.87
24.02
23.15
22.36
21.57
20.60
19.20
17.17
14.45
11.14
7.43
3.61
-0.12
-3.63
-6.86
-9.77
-12.36
-14.63
-16.70
-18.80
-21.37
-24.86
-29.60
-35.57
-42.20
-48.47
-53.02
-54.58
-52.37
-46.29
-37.05
-25.96
-14.46
-3.82
5.18
12.29
17.69
21.73
24.81
27.25
29.19
30.71
31.77
32.29
32.23
31.62
30.60
29.34
28.03
26.76
25.56
24.44
23.35
22.24
21.06
19.74
18.24
16.50
14.50
12.14
9.35
6.05
2.36
-1.50
-5.22
-8.58
-11.56
-14.34
-17.20
-20.36
-23.88
-27.70
-31.79
-36.12
-40.61
-44.93
-48.39
-49.99
-48.75
-44.11
-36.21
-25.93
-14.61
-3.63
6.00
13.73
19.47
23.44
25.90
27.08
27.20
26.43
25.04
23.35
21.67
20.26
19.28
18.70
18.38
18.20
18.05
17.89
17.74
17.53
17.11
16.24
14.67
12.21
8.86
4.78
0.36
-3.93
-7.68
-10.65
-12.89
-14.78
-16.87
-19.74
-23.78
-29.01
-35.07
-41.21
-46.39
-49.49
-49.53
-46.08
-39.32
-30.20
-20.06
-10.24
-1.66
5.36
10.98
15.54
19.29
22.24
24.30
25.34
25.45
24.89
24.02
23.18
22.61
22.40
22.51
22.79
23.01
22.93
22.39
21.32
19.81
18.01
16.01
13.84
11.33
8.36
4.89
1.05
-2.86
-6.52
-9.70
-12.42
-14.86
-17.31
-20.07
-23.36
-27.33
-31.98
-37.11
-42.22
-46.46
-48.75
-48.11
-43.99
-36.59
-26.83
-16.09
-5.75
3.21
10.42
16.06
20.49
24.08
26.95
29.05
30.29
30.67
30.30
29.44
28.34
27.17
26.06
25.03
24.08
23.22
22.44
21.74
21.10
20.44
19.61
18.36
16.42
13.54
9.68
5.04
0.05
-4.69
-8.67
-11.66
-13.82
-15.61
-17.69
-20.66
-24.84
-30.17
-36.08
-41.63
-45.67
-47.06
-45.05
-39.56
-31.22
-21.21
-10.94
-1.59
6.19
12.29
17.02
20.77
23.77
26.04
27.47
27.97
27.65
26.83
25.87
25.12
24.66
24.36
23.94
23.18
21.97
20.44
18.85
17.38
16.07
14.73
12.99
10.48
7.03
2.80
-1.76
-6.08
-9.74
-12.55
-14.74
-16.73
-19.07
-22.21
-26.39
-31.53
-37.17
-42.49
-46.39
-47.80
-45.91
-40.57
-32.31
-22.21
-11.62
-1.71
6.70
13.31
18.16
21.44
23.36
24.07
23.72
22.60
21.18
20.00
19.50
19.85
20.85
21.97
22.68
22.61
21.79
20.55
19.29
18.33
17.64
16.91
15.69
13.66
10.68
6.91
2.73
-1.50
-5.49
-9.19
-12.72
-16.38
-20.46
-25.19
-30.48
-35.86
-40.46
-43.14
-42.94
-39.38
-32.75
-24.08
-14.76
-6.03
1.36
7.23
11.78
15.26
17.74
19.17
19.49
18.86
17.66
16.46
15.75
15.83
16.67
17.94
19.15
19.81
19.63
18.61
16.97
15.06
13.17
11.40
9.62
7.64
5.29
2.55
-0.45
-3.50
-6.41
-9.09
-11.56
-14.00
-16.65
-19.77
-23.54
-28.00
-32.98
-38.06
-42.63
-45.88
-46.99
-45.26
-40.44
-32.81
-23.22
-12.95
-3.24
5.08
11.72
16.89
21.00
24.29
26.74
28.20
28.58
28.05
27.03
26.04
25.40
25.25
25.45
25.79
26.04
26.05
25.75
25.07
23.99
22.50
20.63
18.47
16.15
13.80
11.58
9.60
7.87
6.20
4.31
1.84
-1.41
-5.38
-9.81
-14.28
-18.41
-22.00
-25.08
-27.93
-30.96
-34.59
-39.13
-44.59
-50.53
-56.08
-60.04
-61.17
-58.55
-51.97
-42.04
-30.11
-17.86
-6.79
2.22
9.01
14.02
17.83
20.87
23.22
24.75
25.39
25.33
25.01
24.93
25.39
26.31
27.33
28.06
28.22
27.83
27.10
26.31
25.63
25.12
24.69
24.16
23.34
22.04
20.15
17.69
14.85
11.90
9.09
6.54
4.16
1.73
-1.00
-4.15
-7.69
-11.41
-15.06
-18.44
-21.49
-24.30
-27.06
-30.12
-33.78
-38.24
-43.47
-49.00
-53.93
-57.10
-57.41
-54.18
-47.47
-38.07
-27.28
-16.48
-6.74
1.38
7.83
12.84
16.70
19.59
21.64
22.93
23.62
23.91
24.04
24.25
24.62
25.19
25.88
26.56
27.11
27.45
27.61
27.65
27.61
27.44
26.94
25.88
24.08
21.55
18.52
15.35
12.43
10.01
8.10
6.48
4.78
2.59
-0.34
-3.99
-8.11
-12.22
-15.89
-18.87
-21.24
-23.33
-25.60
-28.44
-32.06
-36.41
-41.23
-46.00
-50.00
-52.37
-52.28
-49.20
-43.01
-34.26
-23.94
-13.29
-3.43
4.91
11.45
16.23
19.51
21.53
22.51
22.70
22.38
21.91
21.56
21.56
21.89
22.40
22.88
23.12
23.04
22.70
22.26
21.81
21.38
20.79
19.77
18.07
15.61
12.56
9.33
6.39
4.00
2.14
0.48
-1.43
-3.91
-7.00
-10.47
-13.96
-17.14
-19.90
-22.28
-24.49
-26.77
-29.30
-32.26
-35.69
-39.45
-43.09
-45.82
-46.68
-44.82
-39.91
-32.19
-22.56
-12.20
-2.23
6.51
13.59
18.89
22.49
24.49
25.11
24.62
23.42
21.99
20.81
20.22
20.38
21.20
22.37
23.53
24.36
24.70
24.59
24.18
23.62
22.93
22.00
20.64
18.77
16.45
13.92
11.46
9.29
7.52
6.12
4.89
3.62
2.02
-0.09
-2.81
-6.04
-9.50
-12.87
-15.89
-18.57
-21.17
-24.13
-27.85
-32.54
-38.04
-43.87
-49.24
-53.17
-54.70
-53.09
-48.10
-40.13
-30.12
-19.33
-9.02
-0.11
6.96
12.22
16.01
18.71
20.64
21.94
22.66
22.83
22.63
22.31
22.21
22.57
23.41
24.51
25.47
25.95
25.80
25.12
24.19
23.25
22.35
21.34
19.94
17.98
15.46
12.58
9.66
6.95
4.55
2.36
0.22
-2.08
-4.64
-7.49
-10.50
-13.56
-16.47
-19.17
-21.74
-24.43
-27.62
-31.62
-36.50
-41.89
-46.99
-50.65
-51.79
-49.65
-44.14
-35.76
-25.56
-14.80
-4.64
4.07
10.88
15.77
18.95
20.82
21.73
22.00
21.87
21.51
21.09
20.75
20.66
20.90
21.50
22.39
23.44
24.49
25.37
25.87
25.72
24.75
22.95
20.48
17.73
15.00
12.44
9.96
7.28
4.21
0.71
-3.06
-6.83
-10.36
-13.52
-16.31
-18.83
-21.30
-24.01
-27.28
-31.40
-36.41
-41.89
-46.95
-50.41
-51.09
-48.25
-41.90
-32.81
-22.24
-11.62
-2.06
5.83
11.96
16.54
19.81
21.95
23.05
23.24
22.84
22.26
21.94
22.10
22.66
23.34
23.81
23.90
23.62
23.17
22.72
22.33
21.94
21.34
20.29
18.61
16.23
13.20
9.71
6.04
2.47
-0.85
-3.87
-6.67
-9.32
-11.85
-14.30
-16.71
-19.22
-22.07
-25.49
-29.65
-34.53
-39.98
-45.63
-50.88
-54.93
-56.88
-55.93
-51.69
-44.33
-34.63
-23.73
-12.85
-2.95
5.40
12.03
17.07
20.83
23.62
25.69
27.16
28.04
28.35
28.16
27.69
27.29
27.21
27.59
28.30
29.05
29.52
29.49
28.90
27.81
26.32
24.49
22.31
19.82
17.08
14.31
11.71
9.42
7.34
5.16
2.54
-0.70
-4.50
-8.48
-12.22
-15.45
-18.16
-20.67
-23.39
-26.68
-30.72
-35.51
-40.78
-45.99
-50.32
-52.75
-52.33
-48.51
-41.39
-31.75
-20.85
-10.03
-0.32
7.73
14.00
18.62
21.78
23.73
24.68
24.93
24.88
24.86
25.10
25.66
26.43
27.22
27.89
28.35
28.61
28.73
28.71
28.47
27.83
26.58
24.61
22.00
18.95
15.80
12.89
10.39
8.28
6.36
4.37
2.09
-0.56
-3.55
-6.72
-9.88
-12.93
-15.85
-18.75
-21.80
-25.27
-29.41
-34.35
-39.99
-45.78
-50.76
-53.66
-53.31
-49.10
-41.21
-30.73
-19.23
-8.28
1.02
8.29
13.69
17.68
20.61
22.68
23.94
24.47
24.46
24.23
24.08
24.22
24.67
25.38
26.19
26.96
27.55
27.81
27.63
26.94
25.79
24.27
22.48
20.43
18.05
15.26
12.06
8.55
4.90
1.25
-2.35
-5.89
-9.38
-12.73
-15.88
-18.76
-21.58
-24.68
-28.51
-33.34
-39.00
-44.82
-49.69
-52.42
-52.05
-48.17
-41.11
-31.73
-21.23
-10.70
-0.97
7.55
14.74
20.63
25.24
28.61
30.78
31.90
32.22
32.07
31.76
31.54
31.58
31.98
32.76
33.93
35.34
36.77
37.92
38.56
38.56
37.96
36.90
35.52
33.92
32.13
30.17
28.18
26.34
24.89
23.95
23.49
23.29
23.03
22.46
21.49
20.31
19.31
18.98
19.67
21.37
23.67
25.82
27.17
27.55
27.69
29.12
33.77
43.22
58.05
77.52
99.83
122.78
144.47
163.67
179.79
192.56
201.74
207.15
208.88
207.37
203.21
196.68
187.41
174.35
156.28
132.61
103.71
70.98
36.07
0.03
-37.08
-76.05
-117.59
-161.46
-205.83
-247.59
-283.10
-309.42
-325.25
-331.25
-329.66
-323.41
-315.13
-306.46
-297.99
-289.51
-280.57
-270.78
-259.88
-247.58
-233.54
-217.42
-199.19
-179.45
-159.45
-140.84
-124.96
-112.24
-101.95
-92.32
-81.27
-67.19
-49.56
-29.13
-7.54
13.30
31.88
47.35
59.69
69.30
76.74
82.43
86.60
89.38
90.85
91.25
90.88
90.06
89.07
88.07
87.10
86.08
84.87
83.31
81.31
78.86
76.03
72.89
69.47
65.72
61.58
57.04
52.24
47.42
42.80
38.47
34.30
30.00
25.29
20.06
14.51
9.03
4.07
-0.12
-3.65
-6.93
-10.62
-15.30
-21.29
-28.47
-36.18
-43.37
-48.76
-51.14
-49.71
-44.31
-35.46
-24.27
-12.11
-0.30
10.22
18.96
25.86
31.07
34.83
37.37
38.94
39.83
40.33
40.72
41.21
41.87
42.62
43.33
43.84
44.11
44.15
44.05
43.89
43.68
43.35
42.65
41.32
39.08
35.82
31.66
26.98
22.35
18.33
15.25
13.07
11.41
9.63
7.18
3.75
-0.61
-5.47
-10.31
-14.67
-18.35
-21.44
-24.31
-27.44
-31.30
-36.15
-41.90
-48.08
-53.81
-57.97
-59.44
-57.43
-51.69
-42.66
-31.33
-19.01
-6.99
3.74
12.64
19.51
24.38
27.41
28.78
28.81
27.97
26.85
26.01
25.87
26.57
28.00
29.83
31.69
33.23
34.28
34.82
34.96
34.88
34.63
34.11
33.06
31.21
28.43
24.90
21.03
17.30
14.03
11.21
8.50
5.50
1.93
-2.22
-6.60
-10.76
-14.36
-17.35
-20.01
-22.86
-26.42
-31.04
-36.78
-43.27
-49.76
-55.23
-58.52
-58.60
-54.85
-47.32
-36.78
-24.57
-12.19
-0.91
8.50
15.84
21.26
25.09
27.59
28.95
29.32
28.92
28.11
27.21
26.57
26.34
26.46
26.73
26.90
26.83
26.61
26.38
26.24
26.13
25.67
24.40
22.02
18.55
14.36
10.05
6.11
2.80
0.11
-2.19
-4.42
-6.79
-9.49
-12.66
-16.33
-20.40
-24.64
-28.74
-32.49
-35.90
-39.21
-42.76
-46.68
-50.59
-53.64
-54.63
-52.42
-46.37
-36.63
-24.13
-10.43
2.76
13.96
22.31
27.58
30.19
30.92
30.66
30.26
30.47
31.81
34.51
38.13
41.57
43.36
42.28
38.09
31.78
25.19
20.20
17.81
17.78
18.94
19.96
20.15
19.70
19.38
19.83
21.20
22.94
24.17
24.23
23.01
21.02
19.25
18.91
20.84
25.37
32.09
39.98
47.85
54.76
60.49
65.73
72.01
81.40
96.20
118.45
149.35
188.44
233.11
278.53
318.64
347.86
362.87
363.73
353.61
337.37
319.69
303.59
290.10
278.83
268.96
259.92
251.47
243.47
235.55
227.20
217.92
207.58
196.29
184.30
171.72
158.37
143.89
128.07
110.97
93.04
74.88
56.95
39.31
21.60
3.32
-15.78
-35.34
-54.50
-72.14
-87.35
-99.87
-110.16
-119.27
-128.64
-140.00
-155.00
-174.50
-197.56
-220.54
-237.33
-241.02
-226.79
-194.46
-149.56
-101.81
-61.77
-37.12
-30.53
-39.77
-59.84
-85.72
-114.00
-143.23
-173.05
-203.27
-233.56
-264.00
-295.71
-330.74
-371.13
-417.19
-466.23
-512.87
-550.66
-574.67
-583.43
-579.20
-566.44
-549.22
-529.49
-506.43
-477.56
-440.71
-395.27
-342.45
-284.53
-224.11
-163.81
-106.44
-55.04
-12.37
19.98
42.39
57.24
68.19
78.86
91.94
108.97
130.95
158.90
194.06
237.09
286.88
339.74
389.53
429.12
452.55
456.94
443.25
415.64
380.05
341.81
304.43
269.16
235.57
202.64
169.61
136.10
101.64
65.29
25.93
-16.69
-60.89
-102.83
-137.57
-161.16
-172.40
-173.42
-168.57
-162.32
-157.48
-154.48
-152.20
-149.38
-145.60
-141.49
-137.95
-135.36
-133.34
-130.96
-127.49
-122.83
-117.59
-112.64
-108.74
-106.08
-104.18
-102.13
-99.02
-94.38
-88.55
-82.54
-77.72
-75.24
-75.70
-78.85
-83.93
-89.86
-95.61
-100.49
-104.10
-106.29
-107.04
-106.20
-103.47
-98.59
-91.55
-82.84
-73.61
-65.28
-59.01
-55.32
-54.00
-54.34
-55.93
-58.84
-63.60
-70.68
-79.81
-89.71
-98.48
-104.33
-106.48
-105.56
-103.26
-101.58
-101.89
-104.30
-107.69
-110.15
-109.76
-105.22
-96.19
-83.23
-67.29
-49.33
-29.86
-8.86
13.71
37.68
62.34
86.44
108.16
125.33
135.67
137.37
129.83
114.28
93.91
73.05
55.83
44.76
40.06
40.11
42.51
45.36
47.88
50.21
52.64
55.02
56.56
56.29
53.63
48.73
42.40
35.75
29.88
25.43
22.50
20.91
20.27
20.26
20.69
21.40
22.09
22.52
22.58
22.45
22.48
22.95
23.95
25.34
27.10
29.42
32.67
36.97
41.82
46.01
48.23
47.77
44.93
41.05
37.73
35.98
35.74
36.05
35.74
34.16
31.52
28.71
26.81
26.65
28.37
31.48
35.13
38.44
40.89
42.40
43.33
44.26
45.57
47.36
49.51
51.91
54.45
56.95
58.86
59.28
57.20
52.07
44.21
34.80
25.26
16.62
9.03
1.98
-5.07
-11.98
-17.71
-20.67
-19.50
-13.75
-4.10
7.94
20.65
32.65
43.20
52.25
60.17
67.40
74.14
80.14
84.86
87.64
88.15
86.54
83.46
79.77
76.22
73.28
70.97
68.98
66.82
63.95
60.01
54.90
48.88
42.42
36.02
30.03
24.49
19.19
13.91
8.63
3.73
-0.15
-2.37
-2.58
-1.03
1.48
3.74
4.51
2.73
-2.06
-9.65
-19.07
-28.62
-36.07
-39.08
-35.94
-26.29
-11.64
4.99
20.09
31.00
36.95
39.17
39.99
41.53
44.61
48.51
51.65
52.54
50.65
46.54
41.41
36.50
32.53
29.66
27.72
26.52
26.00
26.27
27.56
29.87
32.94
36.18
38.86
40.35
40.35
39.01
36.73
34.09
31.47
29.02
26.64
24.05
21.02
17.41
13.15
8.22
2.63
-3.55
-9.88
-15.50
-19.08
-19.11
-14.41
-4.61
9.56
26.43
43.87
60.02
73.77
84.90
93.69
100.38
104.80
106.36
104.48
99.20
91.47
83.04
75.78
71.10
69.39
70.11
72.14
74.28
75.64
75.71
74.29
71.36
67.08
61.84
56.34
51.48
48.06
46.58
47.01
48.94
51.89
55.61
60.12
65.49
71.31
76.35
78.56
75.36
64.41
44.33
15.30
-20.67
-59.91
-97.58
-128.71
-149.30
-157.50
-154.26
-143.19
-129.38
-117.96
-112.46
-113.95
-121.08
-130.88
-140.03
-145.86
-146.93
-142.97
-134.47
-122.31
-107.38
-90.50
-72.36
-53.35
-33.38
-11.66
13.11
42.02
74.75
108.61
138.50
158.29
163.26
152.37
129.03
99.87
71.71
48.66
30.73
14.78
-3.02
-24.66
-49.43
-74.94
-99.14
-121.83
-144.64
-169.36
-196.24
-222.97
-245.53
-259.97
-264.43
-259.81
-249.22
-236.20
-222.96
-209.66
-194.79
-176.47
-153.81
-127.74
-100.64
-75.49
-54.60
-38.75
-26.99
-17.05
-6.20
7.97
26.99
51.36
80.47
112.54
144.69
173.15
194.03
204.44
203.59
193.42
178.37
163.99
155.21
154.82
162.90
177.24
194.46
211.08
224.23
231.77
232.35
225.45
211.55
192.19
169.69
146.71
125.54
107.62
93.46
82.81
75.00
69.19
64.54
60.22
55.39
49.21
40.91
29.87
15.78
-1.19
-20.14
-39.41
-56.68
-69.31
-75.03
-72.52
-62.10
-45.83
-27.41
-11.45
-2.37
-3.18
-14.36
-33.53
-55.99
-76.15
-89.31
-93.23
-88.68
-78.91
-68.40
-61.19
-59.75
-64.53
-74.39
-87.18
-100.58
-112.42
-120.88
-124.55
-122.61
-115.21
-103.59
-90.08
-77.59
-68.84
-65.48
-67.61
-73.89
-82.04
-89.82
-95.66
-99.15
-100.76
-101.44
-102.04
-102.80
-103.35
-102.87
-100.54
-95.95
-89.37
-81.80
-74.75
-69.87
-68.51
-71.34
-77.95
-86.82
-95.48
-101.20
-101.85
-96.69
-86.81
-74.74
-63.36
-54.35
-47.31
-39.67
-27.94
-9.50
16.02
46.18
76.71
103.02
121.99
132.67
136.20
134.85
130.76
125.04
117.66
107.90
95.12
79.39
61.58
42.95
24.61
7.08
-9.61
-25.50
-40.07
-52.22
-60.55
-64.10
-62.96
-58.38
-52.32
-46.74
-42.82
-40.49
-38.43
-34.58
-26.89
-14.32
2.63
21.98
41.23
58.47
73.30
86.92
101.38
118.43
138.66
161.32
184.64
206.37
224.11
235.53
238.81
233.31
220.02
201.60
181.64
163.35
148.63
137.89
130.55
125.79
122.89
120.98
118.57
113.64
104.32
90.10
72.48
54.59
39.93
30.73
27.19
27.61
29.56
30.81
29.87
25.84
18.06
6.11
-9.92
-29.03
-49.21
-68.10
-83.84
-95.84
-104.80
-112.20
-119.30
-126.44
-133.03
-138.05
-140.75
-141.15
-139.96
-138.01
-135.80
-133.24
-129.90
-125.50
-120.30
-115.14
-111.04
-108.65
-107.92
-108.33
-109.16
-110.09
-111.27
-113.17
-116.03
-119.74
-123.70
-127.10
-129.18
-129.43
-127.60
-123.67
-117.80
-110.30
-101.67
-92.53
-83.53
-75.10
-67.37
-60.13
-53.12
-46.35
-40.37
-36.23
-35.04
-37.43
-43.08
-50.68
-58.35
-64.40
-67.93
-68.94
-67.97
-65.45
-61.26
-54.90
-45.85
-34.18
-20.75
-6.93
5.89
16.85
25.76
32.92
38.79
43.56
47.23
49.73
51.12
51.69
51.68
51.15
49.81
47.31
43.41
38.36
32.84
27.83
24.14
22.08
21.47
21.89
23.04
25.09
28.57
34.03
41.63
50.79
60.32
68.93
75.68
80.24
82.98
84.53
85.37
85.70
85.52
84.99
84.46
84.36
84.70
84.84
83.54
79.56
72.28
62.11
50.34
38.69
28.50
20.40
14.34
9.79
6.28
3.54
1.50
0.04
-1.17
-2.62
-4.81
-8.01
-12.03
-16.25
-19.68
-21.34
-20.62
-17.63
-13.22
-8.71
-5.31
-3.68
-3.77
-4.97
-6.60
-8.35
-10.54
-14.01
-19.90
-29.51
-44.02
-64.17
-89.87
-119.75
-151.00
-179.82
-202.42
-216.14
-220.30
-216.22
-206.52
-194.11
-181.26
-169.34
-158.86
-149.72
-141.44
-133.20
-124.01
-112.99
-99.82
-85.03
-69.81
-55.51
-43.11
-32.59
-23.02
-12.89
-0.61
14.87
33.58
53.92
72.57
85.12
87.55
78.00
58.07
32.55
7.69
-11.35
-22.46
-26.94
-28.13
-29.27
-31.78
-34.94
-36.82
-35.67
-30.84
-22.82
-12.61
-0.94
11.99
26.30
42.22
59.64
77.74
95.17
110.27
121.45
127.72
129.00
126.03
120.17
113.01
105.86
99.64
94.98
92.31
91.79
92.99
94.51
94.05
89.15
78.24
61.67
41.75
21.81
4.74
-8.25
-17.83
-25.68
-33.21
-40.68
-47.24
-51.91
-54.58
-56.30
-58.86
-63.65
-70.76
-78.78
-85.50
-88.62
-86.88
-80.28
-69.91
-57.31
-43.91
-30.69
-18.01
-5.81
6.09
17.71
28.78
38.73
46.84
52.57
55.79
56.90
56.78
56.53
57.03
58.66
61.11
63.70
65.66
66.60
66.65
66.32
66.15
66.23
66.14
65.03
62.07
56.92
49.81
41.60
33.39
26.20
20.60
16.81
14.73
13.88
13.37
11.86
7.89
0.50
-10.09
-22.19
-33.06
-39.89
-41.02
-36.49
-27.91
-17.56
-7.36
1.70
9.54
16.40
22.33
27.01
29.97
31.01
30.48
29.14
27.96
27.66
28.41
29.89
31.44
32.47
32.74
32.49
32.21
32.31
32.81
33.16
32.51
30.13
25.80
19.99
13.76
8.25
4.30
2.05
0.86
-0.54
-3.37
-8.46
-15.55
-23.31
-29.71
-32.51
-30.00
-21.42
-7.29
10.59
29.44
46.06
57.76
63.09
62.38
57.41
50.67
44.35
39.62
36.54
34.61
33.34
32.70
32.94
34.17
36.04
37.73
38.35
37.36
34.85
31.48
28.04
25.25
23.26
21.75
20.09
17.69
14.27
10.02
5.47
1.18
-2.48
-5.54
-8.40
-11.57
-15.53
-20.55
-26.62
-33.42
-40.34
-46.51
-50.87
-52.40
-50.43
-44.87
-36.32
-25.89
-14.86
-4.35
4.96
12.84
19.33
24.57
28.62
31.48
33.15
33.83
33.84
33.67
33.70
34.15
34.98
36.00
37.00
37.82
38.40
38.72
38.71
38.24
37.19
35.52
33.29
30.65
27.73
24.64
21.41
18.06
14.58
10.98
7.28
3.46
-0.42
-4.20
-7.64
-10.60
-13.12
-15.57
-18.50
-22.48
-27.80
-34.30
-41.37
-48.03
-53.14
-55.57
-54.47
-49.54
-41.11
-30.22
-18.34
-6.95
2.83
10.54
16.25
20.38
23.41
25.75
27.66
29.29
30.72
31.97
33.04
33.92
34.61
35.10
35.44
35.68
35.85
35.97
36.01
35.86
35.32
34.15
32.16
29.34
25.82
21.94
18.06
14.50
11.45
8.92
6.78
4.74
2.49
-0.26
-3.63
-7.46
-11.45
-15.22
-18.60
-21.75
-25.14
-29.33
-34.71
-41.17
-48.00
-54.01
-57.82
-58.28
-54.80
-47.59
-37.60
-26.27
-15.12
-5.42
2.17
7.58
11.20
13.57
15.16
16.27
17.02
17.49
17.79
18.04
18.32
18.63
18.92
19.19
19.58
20.41
21.96
24.35
27.41
30.65
33.40
35.03
35.10
33.48
30.43
26.43
22.06
17.79
13.76
9.76
5.41
0.34
-5.49
-11.76
-17.88
-23.25
-27.55
-30.84
-33.46
-35.92
-38.54
-41.41
-44.28
-46.71
-48.07
-47.80
-45.46
-40.86
-34.14
-25.78
-16.59
-7.38
1.09
8.32
14.09
18.39
21.28
22.83
23.11
22.32
20.78
18.94
17.27
16.16
15.76
16.02
16.81
17.91
19.16
20.44
21.64
22.56
22.99
22.73
21.74
20.17
18.36
16.74
15.61
15.01
14.71
14.26
13.15
11.09
8.03
4.21
-0.07
-4.54
-9.07
-13.71
-18.54
-23.64
-28.99
-34.53
-40.12
-45.51
-50.22
-53.61
-54.88
-53.36
-48.75
-41.32
-31.84
-21.41
-11.13
-1.91
5.70
11.58
15.92
19.16
21.81
24.24
26.62
28.81
30.56
31.66
32.14
32.33
32.66
33.50
34.96
36.87
38.81
40.34
41.12
40.96
39.91
38.07
35.63
32.79
29.79
26.97
24.59
22.56
20.29
16.65
10.45
0.98
-11.53
-25.85
-40.18
-52.84
-62.93
-70.46
-76.12
-80.79
-85.09
-89.18
-92.81
-95.46
-96.53
-95.39
-91.48
-84.53
-74.60
-62.23
-48.32
-34.01
-20.45
-8.54
1.14
8.49
13.71
17.26
19.68
21.44
22.86
24.05
25.08
25.88
26.42
26.75
26.90
26.98
27.05
27.12
27.12
26.93
26.40
25.37
23.77
21.59
18.94
15.98
12.92
9.91
7.05
4.41
1.97
-0.32
-2.53
-4.77
-7.14
-9.78
-12.82
-16.34
-20.30
-24.46
-28.31
-31.14
-32.26
-31.19
-27.79
-22.39
-15.55
-8.03
-0.59
6.14
11.64
15.65
18.08
19.09
19.01
18.23
17.11
15.92
14.88
14.10
13.68
13.59
13.74
13.93
13.93
13.56
12.74
11.51
9.99
8.36
6.78
5.38
4.18
3.08
1.81
0.13
-2.16
-5.05
-8.37
-11.80
-15.03
-17.85
-20.25
-22.38
-24.56
-27.17
-30.47
-34.44
-38.71
-42.50
-44.86
-44.96
-42.35
-37.16
-30.01
-21.81
-13.50
-5.78
0.92
6.45
10.81
14.10
16.50
18.20
19.31
19.89
19.92
19.44
18.62
17.71
16.97
16.54
16.39
16.33
16.17
15.85
15.43
14.99
14.53
13.92
12.95
11.46
9.46
7.03
4.37
1.58
-1.29
-4.25
-7.32
-10.45
-13.60
-16.77
-20.05
-23.64
-27.74
-32.44
-37.58
-42.66
-46.91
-49.47
-49.60
-46.89
-41.42
-33.74
-24.67
-15.20
-6.24
1.51
7.65
12.08
14.94
16.54
17.21
17.23
16.86
16.33
15.91
15.83
16.32
17.44
19.06
20.85
22.36
23.21
23.20
22.47
21.30
20.01
18.77
17.51
16.05
14.15
11.73
8.87
5.75
2.58
-0.51
-3.46
-6.31
-9.18
-12.14
-15.31
-18.74
-22.46
-26.55
-31.04
-35.92
-40.96
-45.59
-48.93
-50.00
-48.05
-42.87
-34.97
-25.36
-15.31
-5.91
2.16
8.65
13.62
17.24
19.72
21.20
21.85
21.83
21.34
20.61
19.88
19.36
19.18
19.33
19.68
20.03
20.17
19.98
19.44
18.58
17.41
15.88
13.93
11.54
8.82
5.98
3.24
0.68
-1.80
-4.40
-7.25
-10.35
-13.54
-16.63
-19.55
-22.50
-25.78
-29.77
-34.53
-39.73
-44.60
-48.05
-49.03
-46.86
-41.48
-33.50
-24.05
-14.36
-5.42
2.22
8.50
13.63
17.81
21.07
23.31
24.36
24.24
23.21
21.79
20.56
19.94
20.03
20.66
21.46
22.06
22.23
21.90
21.18
20.25
19.24
18.19
16.96
15.28
12.87
9.58
5.56
1.23
-2.84
-6.21
-8.74
-10.71
-12.64
-15.10
-18.43
-22.75
-27.87
-33.39
-38.72
-43.10
-45.64
-45.51
-42.13
-35.50
-26.24
-15.51
-4.67
5.13
13.24
19.50
24.10
27.21
28.85
28.89
27.28
24.29
20.58
17.05
14.48
13.14
12.78
12.75
12.47
11.84
11.26
11.44
12.85
15.32
17.99
19.63
19.27
16.74
12.78
8.67
5.55
4.01
3.75
3.91
3.44
1.62
-1.89
-7.00
-13.30
-20.16
-26.65
-31.55
-33.47
-31.36
-25.07
-15.78
-5.74
2.49
7.12
7.84
5.88
3.25
1.75
2.14
3.99
6.21
7.86
8.64
8.91
9.25
10.06
11.21
12.28
12.86
12.89
12.66
12.62
13.19
14.32
15.62
16.45
16.26
14.87
12.54
9.75
7.04
4.71
2.75
0.89
-1.19
-3.76
-6.85
-10.30
-13.78
-16.94
-19.56
-21.73
-23.81
-26.37
-29.85
-34.33
-39.41
-44.17
-47.51
-48.44
-46.36
-41.28
-33.73
-24.72
-15.34
-6.59
0.91
6.98
11.74
15.50
18.53
20.96
22.78
23.96
24.49
24.53
24.34
24.24
24.44
24.97
25.65
26.26
26.61
26.68
26.64
26.60
26.53
26.17
25.17
23.26
20.51
17.27
14.06
11.32
9.18
7.47
5.87
4.03
1.77
-0.93
-3.99
-7.24
-10.49
-13.61
-16.49
-19.10
-21.57
-24.15
-27.20
-31.01
-35.66
-40.87
-45.93
-49.86
-51.63
-50.42
-45.99
-38.70
-29.47
-19.56
-10.15
-2.07
4.37
9.34
13.16
16.20
18.62
20.47
21.78
22.69
23.40
24.15
25.04
25.95
26.65
26.93
26.69
26.03
25.22
24.52
24.15
24.10
24.20
24.21
23.87
23.03
21.66
19.89
17.87
15.78
13.73
11.77
9.88
7.95
5.87
3.50
0.78
-2.24
-5.44
-8.65
-11.75
-14.66
-17.42
-20.16
-23.05
-26.28
-30.04
-34.38
-39.19
-43.97
-47.93
-50.09
-49.59
-46.02
-39.65
-31.31
-22.10
-13.09
-4.96
1.98
7.73
12.36
15.92
18.47
20.13
21.15
21.87
22.58
23.44
24.42
25.40
26.20
26.66
26.76
26.53
26.10
25.58
25.02
24.40
23.64
22.63
21.31
19.68
17.89
16.11
14.54
13.32
12.44
11.76
10.98
9.80
7.95
5.33
2.05
-1.59
-5.19
-8.38
-10.92
-12.85
-14.48
-16.28
-18.75
-22.23
-26.60
-31.38
-35.68
-38.54
-39.15
-37.10
-32.48
-25.77
-17.80
-9.41
-1.38
5.67
11.36
15.39
17.72
18.49
18.10
17.08
15.98
15.28
15.21
15.80
16.89
18.25
19.58
20.60
21.09
20.99
20.43
19.68
19.02
18.60
18.30
17.81
16.83
15.21
13.08
10.71
8.37
6.20
4.16
2.17
0.18
-1.76
-3.59
-5.31
-7.02
-8.93
-11.12
-13.65
-16.39
-19.22
-22.11
-25.17
-28.54
-32.26
-36.10
-39.46
-41.57
-41.68
-39.30
-34.43
-27.55
-19.51
-11.26
-3.59
3.04
8.47
12.70
15.82
17.85
18.87
19.07
18.82
18.54
18.58
19.02
19.69
20.29
20.52
20.34
19.86
19.36
19.08
19.12
19.44
19.82
19.97
19.61
18.55
16.76
14.43
11.84
9.35
7.19
5.42
3.86
2.26
0.33
-2.08
-4.91
-7.92
-10.80
-13.37
-15.57
-17.52
-19.37
-21.25
-23.23
-25.43
-28.02
-31.21
-35.10
-39.47
-43.64
-46.59
-47.33
-45.20
-40.23
-33.01
-24.55
-15.86
-7.75
-0.71
5.04
9.48
12.70
14.91
16.40
17.46
18.33
19.09
19.69
20.06
20.19
20.19
20.26
20.54
21.02
21.55
21.94
22.08
22.02
21.90
21.79
21.58
21.06
19.98
18.26
16.05
13.68
11.44
9.50
7.87
6.47
5.25
4.13
2.93
1.43
-0.65
-3.45
-6.85
-10.46
-13.76
-16.38
-18.27
-19.67
-21.00
-22.71
-25.22
-28.77
-33.41
-38.73
-43.87
-47.64
-48.81
-46.67
-41.28
-33.44
-24.37
-15.29
-7.08
-0.22
5.11
8.98
11.58
13.25
14.41
15.47
16.60
17.77
18.75
19.37
19.57
19.48
19.32
19.25
19.38
19.70
20.16
20.70
21.18
21.48
21.38
20.79
19.64
18.00
16.00
13.80
11.62
9.62
7.92
6.51
5.24
3.87
2.15
0.00
-2.54
-5.26
-7.94
-10.43
-12.74
-14.90
-16.96
-18.87
-20.55
-21.99
-23.37
-25.02
-27.35
-30.60
-34.70
-39.10
-42.95
-45.21
-44.96
-41.80
-35.92
-28.12
-19.53
-11.28
-4.17
1.48
5.76
8.99
11.53
13.63
15.38
16.76
17.72
18.25
18.40
18.28
18.06
17.87
17.82
17.97
18.38
19.05
19.93
20.88
21.67
22.04
21.77
20.77
19.11
16.98
14.61
12.25
10.07
8.18
6.64
5.40
4.34
3.28
2.02
0.41
-1.61
-4.02
-6.69
-9.41
-12.01
-14.38
-16.55
-18.67
-20.96
-23.57
-26.54
-29.77
-32.99
-35.75
-37.52
-37.66
-35.74
-31.58
-25.46
-18.05
-10.26
-2.96
3.24
8.07
11.60
13.98
15.46
16.19
16.31
16.01
15.55
15.22
15.31
15.97
17.15
18.64
20.11
21.29
22.07
22.58
22.99
23.43
23.83
23.98
23.64
22.73
21.41
20.08
19.13
18.76
18.81
18.79
18.05
15.98
12.34
7.18
0.92
-5.86
-12.55
-18.64
-23.84
-28.05
-31.41
-34.22
-36.90
-39.82
-43.14
-46.63
-49.69
-51.45
-51.09
-48.11
-42.58
-35.10
-26.68
-18.34
-10.90
-4.71
0.27
4.36
7.83
10.79
13.08
14.54
15.11
15.00
14.64
14.47
14.67
15.15
15.64
15.94
16.00
16.03
16.26
16.73
17.16
17.06
16.04
14.06
11.49
8.95
7.00
5.90
5.45
5.19
4.59
3.37
1.50
-0.81
-3.29
-5.77
-8.18
-10.53
-12.87
-15.17
-17.44
-19.70
-22.10
-24.85
-28.20
-32.26
-36.85
-41.36
-44.93
-46.57
-45.53
-41.60
-35.12
-26.93
-18.10
-9.59
-2.12
3.91
8.40
11.46
13.37
14.43
14.93
15.07
15.02
15.00
15.25
15.95
17.17
18.72
20.22
21.32
21.85
21.91
21.80
21.83
22.08
22.46
22.69
22.47
21.57
19.88
17.44
14.45
11.20
8.11
5.49
3.42
1.77
0.21
-1.57
-3.74
-6.28
-9.06
-11.93
-14.77
-17.52
-20.06
-22.30
-24.16
-25.75
-27.42
-29.70
-33.08
-37.70
-43.13
-48.29
-51.74
-52.16
-48.83
-41.99
-32.69
-22.42
-12.67
-4.38
2.13
6.98
10.55
13.16
15.07
16.45
17.58
18.70
19.98
21.41
22.75
23.74
24.21
24.22
24.01
23.88
23.99
24.31
24.64
24.76
24.51
23.81
22.72
21.33
19.84
18.40
17.17
16.19
15.41
14.65
13.69
12.35
10.51
8.20
5.52
2.65
-0.27
-3.21
-6.16
-9.10
-11.96
-14.56
-16.76
-18.55
-20.09
-21.74
-23.93
-26.99
-31.01
-35.82
-40.97
-45.78
-49.42
-51.03
-49.87
-45.60
-38.47
-29.32
-19.41
-10.00
-1.95
4.38
9.19
12.88
15.80
18.10
19.79
20.81
21.24
21.29
21.26
21.38
21.74
22.26
22.78
23.16
23.37
23.50
23.68
24.04
24.55
25.10
25.45
25.39
24.80
23.65
21.98
19.92
17.59
15.12
12.72
10.60
8.93
7.72
6.86
6.06
5.04
3.55
1.47
-1.19
-4.34
-7.75
-11.15
-14.25
-16.85
-18.88
-20.47
-21.97
-23.85
-26.66
-30.76
-36.02
-41.78
-46.85
-49.83
-49.66
-45.92
-39.06
-30.17
-20.62
-11.62
-3.98
1.98
6.34
9.43
11.68
13.48
15.10
16.65
18.10
19.39
20.51
21.58
22.74
24.02
25.33
26.43
27.13
27.36
27.29
27.14
27.10
27.16
27.14
26.80
25.94
24.51
22.63
20.49
18.26
16.06
13.95
11.95
10.11
8.44
6.88
5.32
3.60
1.61
-0.73
-3.34
-6.07
-8.63
-10.77
-12.39
-13.62
-14.90
-16.81
-19.84
-24.15
-29.34
-34.62
-38.89
-41.11
-40.60
-37.16
-31.16
-23.40
-14.88
-6.57
0.81
6.89
11.59
14.98
17.13
18.11
18.03
17.17
15.99
15.05
14.81
15.48
16.93
18.74
20.39
21.50
21.91
21.71
21.17
20.58
20.07
19.58
18.93
17.91
16.44
14.61
12.63
10.71
8.98
7.43
5.95
4.38
2.52
0.30
-2.27
-5.10
-8.00
-10.82
-13.47
-16.01
-18.59
-21.47
-24.90
-28.93
-33.40
-37.78
-41.32
-43.19
-42.73
-39.68
-34.27
-27.13
-19.11
-11.04
-3.51
3.14
8.74
13.25
16.67
18.99
20.32
20.84
20.81
20.54
20.28
20.27
20.63
21.42
22.57
23.87
25.09
25.96
26.39
26.38
26.00
25.30
24.21
22.59
20.27
17.29
13.85
10.34
7.12
4.41
2.14
0.03
-2.26
-5.01
-8.26
-11.86
-15.50
-18.91
-21.90
-24.52
-27.03
-29.80
-33.19
-37.38
-42.25
-47.27
-51.57
-54.10
-53.93
-50.57
-44.16
-35.46
-25.64
-15.85
-6.98
0.51
6.59
11.43
15.24
18.20
20.43
22.02
23.13
23.97
24.77
25.68
26.72
27.79
28.74
29.40
29.71
29.71
29.52
29.23
28.91
28.49
27.81
26.71
25.02
22.73
19.97
17.03
14.22
11.74
9.68
7.92
6.24
4.39
2.18
-0.49
-3.60
-7.00
-10.48
-13.84
-16.93
-19.78
-22.55
-25.55
-29.06
-33.29
-38.28
-43.83
-49.47
-54.48
-58.00
-59.13
-57.25
-52.18
-44.36
-34.69
-24.37
-14.47
-5.76
1.44
7.21
11.81
15.56
18.70
21.37
23.66
25.67
27.49
29.22
30.89
32.44
33.73
34.64
35.09
35.10
34.76
34.20
33.54
32.82
32.04
31.10
29.92
28.41
26.50
24.24
21.72
19.03
16.27
13.50
10.72
7.98
5.37
3.01
0.94
-0.91
-2.73
-4.82
-7.43
-10.65
-14.36
-18.25
-22.00
-25.41
-28.44
-31.30
-34.36
-38.02
-42.59
-48.02
-53.83
-59.06
-62.48
-62.95
-59.80
-53.11
-43.66
-32.74
-21.70
-11.59
-2.98
4.01
9.58
14.06
17.75
20.82
23.39
25.54
27.38
29.07
30.68
32.23
33.58
34.55
35.01
35.01
34.74
34.46
34.37
34.53
34.82
34.99
34.75
33.89
32.33
30.12
27.45
24.54
21.60
18.76
16.03
13.42
10.94
8.64
6.57
4.72
2.91
0.88
-1.66
-4.90
-8.75
-12.93
-17.06
-20.77
-23.86
-26.36
-28.51
-30.72
-33.43
-36.99
-41.52
-46.86
-52.48
-57.53
-60.98
-61.83
-59.43
-53.66
-45.09
-34.72
-23.79
-13.42
-4.29
3.29
9.42
14.30
18.11
21.01
23.07
24.45
25.32
25.90
26.31
26.59
26.73
26.75
26.76
26.93
27.37
28.10
28.97
29.70
30.01
29.69
28.73
27.25
25.44
23.48
21.49
19.56
17.69
15.86
13.98
11.91
9.49
6.64
3.41
-0.03
-3.48
-6.87
-10.30
-13.90
-17.77
-21.73
-25.39
-28.33
-30.28
-31.33
-31.91
-32.60
-34.03
-36.65
-40.60
-45.70
-51.35
-56.54
-59.98
-60.41
-56.97
-49.54
-38.83
-26.26
-13.54
-2.16
6.98
13.74
18.57
22.15
25.08
27.55
29.42
30.48
30.61
30.03
29.19
28.53
28.35
28.66
29.31
30.13
31.06
32.10
33.18
34.12
34.51
33.97
32.30
29.52
25.92
21.92
17.93
14.29
11.30
9.09
7.65
6.77
6.00
4.86
3.02
0.38
-2.82
-6.17
-9.31
-12.03
-14.42
-16.76
-19.41
-22.71
-26.85
-31.78
-37.18
-42.43
-46.66
-48.96
-48.56
-45.02
-38.45
-29.48
-19.10
-8.45
1.35
9.52
15.63
19.70
22.01
23.00
23.13
22.77
22.18
21.55
21.06
20.87
21.10
21.82
22.96
24.32
25.62
26.59
27.01
26.80
25.97
24.63
22.86
20.72
18.25
15.46
12.36
9.01
5.48
1.92
-1.57
-4.87
-7.93
-10.81
-13.62
-16.57
-19.86
-23.70
-28.24
-33.50
-39.34
-45.33
-50.78
-54.73
-56.19
-54.40
-49.12
-40.79
-30.46
-19.47
-9.02
0.06
7.47
13.27
17.67
20.86
22.92
23.86
23.81
23.00
21.83
20.78
20.22
20.37
21.18
22.42
23.74
24.77
25.29
25.18
24.48
23.26
21.58
19.41
16.67
13.35
9.54
5.53
1.59
-2.01
-5.23
-8.24
-11.27
-14.48
-17.82
-21.09
-24.16
-27.16
-30.49
-34.67
-40.00
-46.07
-51.82
-55.66
-55.99
-51.84
-43.17
-30.82
-16.17
-0.86
13.45
25.09
32.60
35.05
32.52
26.27
18.53
11.67
7.41
6.16
7.16
9.06
10.78
11.92
12.73
13.68
15.01
16.53
17.78
18.31
17.96
16.82
15.12
13.20
11.24
9.29
7.29
5.15
2.85
0.41
-2.12
-4.70
-7.36
-10.16
-13.15
-16.33
-19.58
-22.78
-25.87
-28.94
-32.22
-36.03
-40.58
-45.72
-50.87
-55.02
-57.02
-55.96
-51.48
-43.95
-34.35
-23.96
-13.97
-5.18
2.04
7.74
12.21
15.81
18.84
21.50
23.86
25.91
27.62
29.05
30.28
31.41
32.48
33.46
34.26
34.83
35.15
35.23
35.07
34.63
33.80
32.55
30.86
28.81
26.48
23.96
21.32
18.65
16.03
13.50
11.06
8.62
6.04
3.24
0.16
-3.11
-6.46
-9.75
-12.91
-15.90
-18.78
-21.68
-24.73
-28.15
-32.15
-36.90
-42.39
-48.29
-53.95
-58.46
-60.76
-60.05
-55.94
-48.71
-39.19
-28.54
-17.96
-8.33
-0.05
6.87
12.69
17.61
21.75
25.03
27.39
28.87
29.66
30.10
30.49
31.05
31.80
32.69
33.60
34.45
35.25
36.02
36.73
37.27
37.46
37.09
36.04
34.37
32.28
30.02
27.82
25.73
23.67
21.45
18.94
16.12
13.11
10.13
7.42
5.09
3.13
1.32
-0.61
-3.01
-6.07
-9.84
-14.12
-18.59
-22.91
-26.85
-30.36
-33.56
-36.71
-40.19
-44.36
-49.37
-54.98
-60.43
-64.54
-66.00
-63.85
-57.82
-48.49
-37.08
-25.05
-13.67
-3.76
4.37
10.74
15.54
19.02
21.45
23.14
24.44
25.64
26.97
28.49
30.12
31.72
33.17
34.39
35.33
36.02
36.46
36.63
36.52
36.09
35.34
34.23
32.73
30.84
28.55
25.92
23.07
20.17
17.31
14.52
11.77
9.00
6.25
3.69
1.48
-0.28
-1.67
-2.98
-4.57
-6.71
-9.50
-12.79
-16.28
-19.65
-22.69
-25.35
-27.81
-30.42
-33.55
-37.50
-42.26
-47.38
-51.98
-54.96
-55.28
-52.36
-46.21
-37.48
-27.25
-16.75
-7.00
1.37
8.11
13.29
17.07
19.59
21.03
21.59
21.66
21.73
22.25
23.47
25.29
27.36
29.22
30.57
31.32
31.60
31.64
31.60
31.58
31.57
31.48
31.15
30.39
29.01
26.91
24.15
20.94
17.61
14.49
11.79
9.55
7.69
5.99
4.27
2.35
0.10
-2.48
-5.29
-8.19
-11.00
-13.63
-16.16
-18.78
-21.74
-25.32
-29.64
-34.53
-39.50
-43.68
-46.04
-45.67
-42.04
-35.25
-26.08
-15.72
-5.50
3.48
10.61
15.72
18.99
20.75
21.29
20.87
19.71
18.20
16.81
16.09
16.47
18.00
20.38
22.96
25.09
26.33
26.60
26.13
25.25
24.23
23.15
21.95
20.52
18.80
16.82
14.73
12.65
10.75
9.00
7.27
5.35
2.99
0.07
-3.35
-7.02
-10.60
-13.84
-16.69
-19.27
-21.78
-24.43
-27.36
-30.74
-34.73
-39.44
-44.75
-50.12
-54.61
-57.05
-56.47
-52.50
-45.45
-36.29
-26.25
-16.47
-7.74
-0.45
5.42
10.09
13.82
16.82
19.22
21.04
22.29
23.03
23.39
23.55
23.71
24.01
24.53
25.28
26.20
27.14
27.92
28.29
28.08
27.23
25.77
23.87
21.67
19.33
16.95
14.63
12.43
10.39
8.51
6.64
4.65
2.34
-0.36
-3.42
-6.69
-9.93
-12.90
-15.47
-17.65
-19.63
-21.69
-24.12
-27.13
-30.82
-35.22
-40.27
-45.70
-50.95
-55.09
-56.99
-55.64
-50.56
-42.06
-31.21
-19.53
-8.53
0.75
7.90
13.04
16.56
18.88
20.26
20.90
20.98
20.80
20.72
21.01
21.72
22.70
23.65
24.32
24.66
24.84
25.11
25.62
26.33
26.98
27.20
26.66
25.27
23.11
20.41
17.47
14.56
11.87
9.48
7.40
5.57
3.85
2.05
-0.01
-2.46
-5.29
-8.41
-11.65
-14.89
-17.96
-20.75
-23.15
-25.15
-26.91
-28.85
-31.52
-35.38
-40.49
-46.29
-51.66
-55.17
-55.52
-52.05
-44.98
-35.35
-24.69
-14.53
-5.94
0.67
5.48
9.00
11.69
13.79
15.36
16.38
16.91
17.16
17.40
17.76
18.23
18.69
19.00
19.18
19.37
19.74
20.35
21.05
21.53
21.52
20.83
19.41
17.40
14.95
12.23
9.45
6.86
4.68
3.04
1.89
0.95
-0.12
-1.65
-3.77
-6.44
-9.48
-12.66
-15.78
-18.74
-21.51
-24.21
-27.06
-30.36
-34.33
-38.91
-43.69
-47.83
-50.35
-50.32
-47.24
-41.17
-32.72
-22.89
-12.80
-3.47
4.40
10.46
14.65
17.16
18.24
18.24
17.54
16.53
15.62
15.17
15.37
16.20
17.45
18.80
19.90
20.57
20.77
20.58
20.12
19.49
18.70
17.69
16.42
14.90
13.19
11.39
9.51
7.51
5.32
2.88
0.19
-2.57
-5.23
-7.60
-9.60
-11.36
-13.21
-15.55
-18.80
-23.07
-28.11
-33.20
-37.33
-39.45
-38.85
-35.33
-29.30
-21.61
-13.28
-5.26
1.77
7.43
11.61
14.39
15.99
16.67
16.70
16.30
15.62
14.80
14.02
13.54
13.59
14.24
15.35
16.54
17.35
17.43
16.75
15.51
14.01
12.50
10.97
9.29
7.21
4.64
1.62
-1.62
-4.82
-7.80
-10.50
-12.96
-15.33
-17.79
-20.55
-23.80
-27.69
-32.17
-36.97
-41.47
-44.87
-46.31
-45.15
-41.16
-34.59
-26.13
-16.75
-7.45
0.94
7.83
12.99
16.46
18.51
19.48
19.74
19.63
19.39
19.25
19.37
19.82
20.60
21.61
22.68
23.60
24.19
24.29
23.81
22.73
21.18
19.30
17.31
15.30
13.26
11.01
8.38
5.24
1.67
-2.09
-5.75
-9.14
-12.27
-15.31
-18.52
-22.09
-26.10
-30.54
-35.38
-40.55
-45.79
-50.55
-53.96
-55.02
-52.97
-47.60
-39.44
-29.61
-19.46
-10.14
-2.32
3.89
8.83
13.00
16.75
20.17
23.07
25.23
26.59
27.34
27.87
28.54
29.47
30.51
31.40
31.95
32.19
32.35
32.64
33.04
33.25
32.86
31.47
28.99
25.58
21.68
17.77
14.25
11.37
9.08
7.09
5.01
2.51
-0.58
-4.15
-7.93
-11.61
-14.98
-18.05
-21.05
-24.37
-28.41
-33.52
-39.69
-46.45
-52.85
-57.58
-59.36
-57.37
-51.58
-42.73
-32.17
-21.39
-11.54
-3.25
3.44
8.84
13.41
17.47
21.13
24.33
26.96
28.92
30.26
31.19
31.91
32.66
33.53
34.52
35.52
36.36
36.94
37.17
36.97
36.28
35.02
33.20
30.95
28.52
26.17
24.04
22.10
20.12
17.81
15.05
11.89
8.61
5.49
2.76
0.38
-1.83
-4.13
-6.76
-9.77
-13.09
-16.58
-20.06
-23.39
-26.51
-29.47
-32.37
-35.41
-38.86
-42.90
-47.52
-52.37
-56.61
-59.15
-58.88
-55.13
-47.98
-38.26
-27.34
-16.60
-7.12
0.64
6.73
11.55
15.52
18.89
21.78
24.13
25.98
27.39
28.53
29.58
30.67
31.84
33.04
34.16
35.08
35.74
36.10
36.15
35.87
35.20
34.08
32.47
30.45
28.19
25.91
23.79
21.91
20.22
18.59
16.93
15.24
13.57
11.98
10.48
8.97
7.32
5.40
3.12
0.51
-2.40
-5.46
-8.57
-11.63
-14.62
-17.65
-20.93
-24.71
-29.10
-33.93
-38.71
-42.62
-44.75
-44.29
-40.87
-34.69
-26.49
-17.37
-8.38
-0.36
6.31
11.56
15.52
18.32
20.07
20.88
20.94
20.57
20.15
20.02
20.39
21.26
22.49
23.90
25.27
26.45
27.29
27.65
27.43
26.60
25.25
23.55
21.67
19.73
17.75
15.71
13.67
11.73
10.08
8.78
7.78
6.82
5.58
3.87
1.67
-0.87
-3.58
-6.34
-9.15
-12.07
-15.06
-18.05
-20.92
-23.69
-26.58
-29.88
-33.84
-38.44
-43.24
-47.47
-50.15
-50.43
-47.82
-42.35
-34.60
-25.54
-16.29
-7.83
-0.79
4.64
8.68
11.74
14.18
16.25
17.96
19.26
20.18
20.85
21.51
22.37
23.52
24.89
26.28
27.42
28.14
28.29
27.87
26.90
25.46
23.64
21.59
19.49
17.50
15.76
14.30
13.01
11.69
10.13
8.24
6.09
3.79
1.53
-0.62
-2.68
-4.84
-7.25
-10.02
-13.08
-16.21
-19.20
-21.86
-24.24
-26.56
-29.12
-32.22
-35.99
-40.39
-45.19
-49.92
-53.94
-56.45
-56.66
-54.07
-48.64
-40.91
-31.86
-22.64
-14.17
-6.94
-1.04
3.70
7.56
10.78
13.53
15.92
18.05
19.99
21.72
23.24
24.51
25.55
26.39
27.12
27.74
28.18
28.38
28.22
27.70
26.84
25.77
24.59
23.42
22.30
21.23
20.12
18.88
17.36
15.46
13.16
10.52
7.66
4.74
1.91
-0.75
-3.18
-5.47
-7.72
-10.07
-12.62
-15.36
-18.20
-20.99
-23.59
-26.00
-28.32
-30.82
-33.73
-37.13
-40.93
-44.73
-47.86
-49.50
-48.90
-45.60
-39.72
-31.89
-23.17
-14.62
-6.99
-0.59
4.68
9.06
12.73
15.74
18.04
19.63
20.61
21.15
21.37
21.31
20.96
20.34
19.60
19.01
18.84
19.18
19.96
20.88
21.60
21.86
21.53
20.64
19.27
17.54
15.50
13.25
10.90
8.61
6.52
4.69
3.10
1.61
0.06
-1.67
-3.64
-5.87
-8.31
-10.89
-13.51
-16.04
-18.41
-20.66
-22.98
-25.59
-28.74
-32.49
-36.67
-40.83
-44.26
-46.20
-46.01
-43.29
-38.02
-30.56
-21.66
-12.24
-3.27
4.42
10.35
14.39
16.72
17.69
17.78
17.43
17.01
16.74
16.76
17.09
17.68
18.45
19.21
19.83
20.20
20.31
20.20
19.95
19.60
19.13
18.47
17.53
16.30
14.81
13.06
11.08
8.91
6.60
4.26
2.02
-0.06
-1.99
-3.84
-5.63
-7.32
-8.82
-10.14
-11.49
-13.24
-15.74
-19.18
-23.39
-27.92
-32.08
-35.18
-36.59
-35.85
-32.77
-27.58
-20.91
-13.63
-6.61
-0.44
4.69
8.88
12.30
14.98
16.81
17.70
17.71
17.09
16.23
15.49
15.12
15.16
15.54
16.07
16.58
16.93
17.04
16.93
16.61
16.10
15.32
14.19
12.68
10.85
8.90
7.02
5.34
3.82
2.26
0.40
-1.92
-4.80
-8.14
-11.74
-15.24
-18.32
-20.77
-22.66
-24.35
-26.40
-29.34
-33.34
-38.03
-42.65
-46.15
-47.55
-46.21
-41.99
-35.24
-26.82
-17.77
-9.15
-1.79
3.94
8.13
11.13
13.35
15.05
16.31
17.10
17.51
17.78
18.23
19.09
20.32
21.62
22.55
22.79
22.29
21.33
20.34
19.61
19.19
18.80
18.05
16.67
14.66
12.28
9.87
7.60
5.47
3.32
1.03
-1.48
-4.12
-6.82
-9.46
-12.00
-14.37
-16.54
-18.53
-20.59
-23.05
-26.31
-30.60
-35.79
-41.33
-46.33
-49.74
-50.68
-48.63
-43.58
-36.05
-27.00
-17.58
-8.81
-1.37
4.49
8.92
12.21
14.66
16.47
17.72
18.55
19.10
19.55
20.04
20.62
21.31
22.04
22.83
23.71
24.74
25.88
27.04
27.98
28.45
28.19
27.07
25.15
22.64
19.85
17.11
14.66
12.62
10.91
9.34
7.67
5.73
3.36
0.49
-2.85
-6.58
-10.44
-14.12
-17.28
-19.74
-21.65
-23.44
-25.81
-29.32
-34.18
-40.00
-45.82
-50.32
-52.30
-50.97
-46.28
-38.82
-29.64
-19.90
-10.60
-2.45
4.14
9.07
12.45
14.60
15.95
16.92
17.80
18.72
19.64
20.52
21.32
22.09
22.87
23.61
24.24
24.65
24.86
24.92
24.90
24.80
24.50
23.82
22.66
21.05
19.06
16.88
14.60
12.31
10.10
8.06
6.31
4.90
3.76
2.68
1.42
-0.23
-2.36
-4.90
-7.72
-10.66
-13.59
-16.44
-19.21
-21.96
-24.85
-28.11
-31.93
-36.36
-41.16
-45.71
-49.17
-50.60
-49.26
-44.89
-37.83
-28.98
-19.52
-10.62
-3.07
2.82
7.16
10.28
12.50
14.08
15.11
15.74
16.15
16.59
17.31
18.46
20.05
21.95
23.95
25.79
27.23
28.07
28.23
27.83
27.10
26.25
25.39
24.47
23.31
21.77
19.82
17.56
15.15
12.76
10.50
8.46
6.69
5.19
3.87
2.59
1.14
-0.63
-2.81
-5.28
-7.86
-10.36
-12.71
-15.06
-17.70
-20.96
-25.00
-29.62
-34.12
-37.50
-38.72
-37.08
-32.54
-25.64
-17.39
-8.82
-0.77
6.26
12.07
16.61
19.87
21.90
22.73
22.52
21.49
19.99
18.44
17.25
16.73
16.99
17.91
19.19
20.50
21.61
22.38
22.75
22.65
21.95
20.52
18.36
15.65
12.72
10.00
7.74
6.03
4.71
3.45
1.92
-0.12
-2.72
-5.68
-8.65
-11.27
-13.33
-14.92
-16.39
-18.20
-20.77
-24.30
-28.66
-33.46
-37.99
-41.39
-42.78
-41.52
-37.38
-30.78
-22.54
-13.79
-5.57
1.42
6.80
10.63
13.14
14.77
15.92
16.89
17.83
18.74
19.56
20.28
20.97
21.72
22.53
23.26
23.70
23.73
23.41
22.91
22.40
21.91
21.28
20.24
18.65
16.46
13.79
10.89
8.00
5.37
3.20
1.48
0.06
-1.38
-3.19
-5.56
-8.47
-11.72
-15.08
-18.35
-21.44
-24.36
-27.17
-29.98
-32.99
-36.39
-40.21
-44.14
-47.50
-49.36
-48.85
-45.47
-39.32
-31.13
-21.99
-13.01
-5.03
1.62
6.99
11.41
15.15
18.26
20.56
21.87
22.22
21.92
21.53
21.58
22.30
23.52
24.85
25.86
26.37
26.38
26.04
25.49
24.81
23.99
23.04
22.00
20.94
19.89
18.78
17.53
16.03
14.19
12.01
9.60
7.08
4.64
2.45
0.57
-1.08
-2.71
-4.59
-6.96
-9.84
-13.14
-16.64
-20.18
-23.71
-27.29
-31.04
-35.06
-39.35
-43.69
-47.71
-50.79
-52.22
-51.38
-47.89
-41.81
-33.69
-24.41
-14.98
-6.29
1.09
6.98
11.45
14.76
17.22
19.08
20.58
21.85
22.99
24.02
24.98
25.81
26.52
27.13
27.66
28.14
28.55
28.81
28.79
28.42
27.69
26.67
25.47
24.19
22.87
21.52
20.11
18.58
16.86
14.83
12.41
9.65
6.72
3.90
1.51
-0.29
-1.60
-2.77
-4.20
-6.22
-8.92
-12.16
-15.66
-19.15
-22.46
-25.63
-28.79
-32.17
-35.97
-40.25
-44.76
-48.94
-51.92
-52.84
-51.08
-46.52
-39.63
-31.25
-22.33
-13.69
-5.87
0.86
6.42
10.79
14.06
16.30
17.69
18.47
18.91
19.31
19.95
20.93
22.21
23.60
24.84
25.78
26.41
26.81
27.04
27.02
26.56
25.56
24.04
22.22
20.43
18.89
17.64
16.55
15.42
14.07
12.43
10.51
8.36
6.06
3.67
1.24
-1.20
-3.69
-6.25
-8.92
-11.63
-14.32
-16.92
-19.44
-21.96
-24.65
-27.68
-31.24
-35.41
-40.07
-44.76
-48.72
-50.98
-50.73
-47.56
-41.60
-33.51
-24.22
-14.68
-5.68
2.23
8.73
13.67
17.08
19.15
20.23
20.67
20.86
21.08
21.45
22.06
22.88
23.86
24.86
25.77
26.48
26.97
27.29
27.52
27.68
27.72
27.42
26.55
24.93
22.58
19.79
17.01
14.69
13.03
11.89
10.81
9.30
7.00
3.93
0.43
-3.01
-5.99
-8.40
-10.42
-12.39
-14.62
-17.31
-20.51
-24.23
-28.42
-32.85
-37.02
-40.09
-41.11
-39.34
-34.59
-27.35
-18.66
-9.76
-1.71
4.87
9.84
13.38
15.81
17.41
18.38
18.85
18.95
18.82
18.66
18.65
18.90
19.45
20.22
21.08
21.92
22.66
23.32
23.87
24.19
24.05
23.19
21.39
18.70
15.41
11.98
8.90
6.45
4.61
3.08
1.43
-0.71
-3.50
-6.84
-10.44
-13.91
-16.98
-19.51
-21.57
-23.44
-25.49
-28.12
-31.61
-36.02
-41.13
-46.42
-51.11
-54.26
-54.96
-52.61
-47.16
-39.11
-29.47
-19.39
-9.94
-1.81
4.73
9.75
13.53
16.34
18.41
19.87
20.81
21.41
21.87
22.46
23.37
24.66
26.22
27.76
28.97
29.60
29.57
28.98
28.01
26.88
25.73
24.64
23.56
22.36
20.86
18.97
16.67
14.08
11.44
8.95
6.70
4.60
2.43
-0.09
-3.13
-6.68
-10.48
-14.20
-17.55
-20.44
-23.05
-25.74
-28.88
-32.72
-37.35
-42.65
-48.37
-54.01
-58.88
-62.11
-62.76
-60.14
-54.04
-44.92
-33.90
-22.40
-11.82
-3.10
3.48
8.21
11.68
14.47
16.91
19.02
20.74
22.03
22.98
23.83
24.75
25.78
26.81
27.69
28.35
28.88
29.43
30.04
30.61
30.86
30.46
29.21
27.15
24.52
21.70
19.01
16.61
14.43
12.30
10.04
7.62
5.14
2.75
0.53
-1.55
-3.57
-5.65
-7.79
-10.00
-12.23
-14.48
-16.81
-19.33
-22.23
-25.72
-29.98
-35.02
-40.58
-45.98
-50.21
-52.22
-51.18
-46.84
-39.60
-30.38
-20.31
-10.41
-1.39
6.41
12.91
18.13
22.06
24.67
26.03
26.35
26.03
25.58
25.45
25.84
26.73
27.90
29.11
30.19
31.10
31.85
32.45
32.81
32.81
32.28
31.10
29.25
26.86
24.13
21.32
18.69
16.35
14.23
12.14
9.81
7.00
3.68
-0.03
-3.88
-7.56
-10.82
-13.57
-15.88
-18.03
-20.43
-23.53
-27.69
-32.92
-38.81
-44.46
-48.70
-50.35
-48.67
-43.52
-35.43
-25.43
-14.76
-4.55
4.37
11.59
17.03
20.89
23.47
25.04
25.84
26.09
25.99
25.79
25.78
26.13
26.85
27.77
28.60
29.13
29.29
29.19
28.97
28.70
28.25
27.33
25.68
23.20
20.03
16.53
13.12
10.08
7.49
5.20
2.91
0.38
-2.53
-5.84
-9.43
-13.16
-16.92
-20.56
-23.98
-27.12
-30.07
-33.11
-36.61
-40.94
-46.16
-51.84
-57.08
-60.62
-61.25
-58.22
-51.53
-41.91
-30.62
-19.01
-8.19
1.21
8.99
15.24
20.09
23.70
26.13
27.52
28.09
28.15
28.06
28.09
28.37
28.90
29.55
30.14
30.53
30.70
30.74
30.75
30.83
30.92
30.82
30.28
29.14
27.32
24.92
22.16
19.24
16.34
13.52
10.74
7.90
4.91
1.66
-1.86
-5.60
-9.46
-13.34
-17.11
-20.70
-24.06
-27.24
-30.43
-33.95
-38.21
-43.47
-49.65
-56.13
-61.85
-65.51
-65.96
-62.60
-55.53
-45.54
-33.93
-22.04
-11.04
-1.62
6.01
12.00
16.69
20.44
23.51
26.01
27.96
29.34
30.19
30.65
30.90
31.14
31.50
32.03
32.68
33.44
34.30
35.24
36.16
36.81
36.80
35.80
33.73
30.82
27.50
24.20
21.12
18.15
15.05
11.65
8.00
4.36
1.06
-1.72
-3.99
-5.94
-7.87
-10.01
-12.50
-15.38
-18.58
-21.94
-25.31
-28.56
-31.70
-34.94
-38.61
-43.06
-48.38
-54.26
-59.88
-64.09
-65.67
-63.75
-58.11
-49.27
-38.36
-26.74
-15.67
-6.00
1.91
8.13
12.93
16.62
19.46
21.61
23.13
24.16
24.86
25.41
25.96
26.57
27.21
27.81
28.32
28.75
29.09
29.31
29.34
29.05
28.35
27.15
25.52
23.57
21.45
19.32
17.27
15.24
13.12
10.77
8.10
5.18
2.18
-0.71
-3.35
-5.76
-8.06
-10.43
-12.98
-15.76
-18.64
-21.48
-24.10
-26.49
-28.73
-31.11
-33.98
-37.70
-42.36
-47.71
-53.10
-57.53
-59.88
-59.19
-54.97
-47.36
-37.19
-25.72
-14.29
-4.00
4.59
11.37
16.55
20.38
23.02
24.55
25.07
24.83
24.18
23.51
23.23
23.48
24.30
25.56
27.10
28.72
30.25
31.49
32.31
32.53
32.04
30.79
28.80
26.20
23.19
20.06
17.08
14.49
12.36
10.59
8.91
7.01
4.64
1.71
-1.61
-5.06
-8.35
-11.28
-13.89
-16.29
-18.72
-21.45
-24.68
-28.55
-32.94
-37.40
-41.18
-43.30
-42.83
-39.30
-32.88
-24.33
-14.78
-5.40
2.95
9.82
15.05
18.71
20.93
21.86
21.79
21.10
20.22
19.51
19.17
19.19
19.40
19.59
19.63
19.45
19.04
18.37
17.38
15.97
14.05
11.56
8.54
5.08
1.34
-2.55
-6.49
-10.45
-14.53
-18.82
-23.42
-28.32
-33.38
-38.30
-42.75
-46.48
-49.51
-52.14
-54.93
-58.41
-62.88
-68.18
-73.63
-78.14
-80.55
-79.90
-75.74
-68.18
-57.85
-45.68
-32.70
-19.75
-7.46
3.74
13.57
21.76
28.13
32.56
35.24
36.64
37.44
38.40
40.22
43.35
47.86
53.14
58.01
60.97
60.72
56.81
49.91
41.66
33.94
28.13
24.62
22.86
21.93
21.12
20.31
19.77
19.79
20.25
20.49
19.76
17.54
13.94
9.61
5.39
2.01
-0.41
-2.29
-4.41
-7.60
-12.35
-18.69
-26.09
-33.57
-39.85
-43.65
-43.98
-40.47
-33.50
-24.12
-13.75
-3.70
5.11
12.31
17.90
22.09
25.06
26.95
27.85
27.94
27.49
26.87
26.47
26.50
27.03
27.88
28.78
29.47
29.80
29.77
29.49
29.11
28.63
27.94
26.82
25.04
22.55
19.47
16.16
12.98
10.17
7.71
5.39
2.90
0.02
-3.23
-6.69
-10.10
-13.35
-16.46
-19.57
-22.83
-26.31
-30.00
-33.96
-38.33
-43.28
-48.82
-54.54
-59.58
-62.78
-63.05
-59.80
-53.13
-43.87
-33.21
-22.37
-12.25
-3.33
4.21
10.41
15.39
19.22
22.02
23.84
24.85
25.25
25.32
25.43
25.83
26.66
27.79
29.00
29.95
30.47
30.55
30.35
30.03
29.62
29.03
28.01
26.36
23.98
21.00
17.70
14.44
11.55
9.19
7.35
5.80
4.21
2.20
-0.44
-3.72
-7.45
-11.28
-14.91
-18.18
-21.13
-23.96
-26.98
-30.45
-34.55
-39.30
-44.48
-49.55
-53.68
-55.73
-54.68
-49.90
-41.55
-30.57
-18.48
-6.82
3.21
11.09
16.90
21.01
23.85
25.74
26.91
27.55
27.89
28.15
28.46
28.87
29.27
29.56
29.72
29.81
29.99
30.35
30.83
31.18
31.06
30.13
28.24
25.39
21.83
17.85
13.79
9.88
6.30
3.09
0.21
-2.50
-5.19
-7.98
-10.89
-13.84
-16.76
-19.68
-22.80
-26.42
-30.80
-35.87
-41.18
-45.83
-48.77
-49.06
-46.18
-40.18
-31.67
-21.61
-11.11
-1.16
7.46
14.36
19.47
22.94
25.04
26.03
26.17
25.72
25.00
24.33
24.04
24.29
25.03
26.03
27.00
27.74
28.20
28.45
28.52
28.32
27.65
26.28
24.15
21.34
18.10
14.77
11.53
8.46
5.48
2.43
-0.84
-4.38
-8.11
-11.90
-15.56
-18.97
-22.11
-25.12
-28.27
-31.89
-36.28
-41.54
-47.43
-53.22
-57.85
-60.08
-58.92
-53.94
-45.50
-34.60
-22.66
-11.09
-0.90
7.38
13.76
18.54
22.09
24.69
26.45
27.39
27.59
27.29
26.89
26.78
27.22
28.15
29.24
30.11
30.44
30.19
29.49
28.60
27.76
27.05
26.41
25.70
24.69
23.18
21.04
18.31
15.16
11.91
8.85
6.09
3.51
0.82
-2.26
-5.86
-9.87
-13.99
-17.91
-21.47
-24.73
-27.92
-31.34
-35.31
-39.99
-45.43
-51.40
-57.36
-62.42
-65.49
-65.52
-61.84
-54.44
-44.03
-31.86
-19.42
-7.97
1.71
9.39
15.29
19.80
23.29
26.00
28.03
29.48
30.42
30.99
31.32
31.48
31.56
31.57
31.61
31.75
32.09
32.63
33.22
33.60
33.49
32.69
31.18
29.06
26.57
23.92
21.22
18.54
15.90
13.37
11.03
8.92
6.95
4.92
2.57
-0.29
-3.66
-7.38
-11.20
-14.92
-18.44
-21.75
-24.91
-28.02
-31.21
-34.69
-38.76
-43.68
-49.47
-55.74
-61.57
-65.67
-66.69
-63.66
-56.42
-45.66
-32.81
-19.56
-7.38
2.79
10.73
16.72
21.24
24.70
27.35
29.24
30.44
31.11
31.46
31.72
31.99
32.23
32.33
32.27
32.15
32.13
32.30
32.57
32.66
32.27
31.22
29.55
27.47
25.23
23.01
20.89
18.85
16.85
14.84
12.75
10.47
7.89
4.95
1.72
-1.60
-4.80
-7.74
-10.44
-13.06
-15.80
-18.82
-22.11
-25.54
-28.92
-32.14
-35.29
-38.63
-42.54
-47.21
-52.54
-57.93
-62.35
-64.58
-63.57
-58.81
-50.55
-39.69
-27.56
-15.50
-4.60
4.54
11.72
17.03
20.71
23.00
24.17
24.51
24.25
23.67
23.01
22.49
22.26
22.37
22.81
23.49
24.29
25.14
25.98
26.75
27.32
27.52
27.14
26.07
24.32
22.05
19.51
16.91
14.41
12.11
10.03
8.20
6.57
5.00
3.29
1.25
-1.19
-3.93
-6.71
-9.26
-11.47
-13.37
-15.21
-17.20
-19.55
-22.37
-25.78
-29.87
-34.65
-39.85
-44.75
-48.28
-49.27
-46.88
-40.95
-32.06
-21.36
-10.17
0.38
9.56
16.99
22.52
26.13
27.88
27.99
26.89
25.15
23.39
22.16
21.70
22.00
22.81
23.80
24.69
25.38
25.88
26.22
26.36
26.15
25.41
24.03
22.03
19.54
16.74
13.81
10.88
8.01
5.22
2.48
-0.26
-3.09
-6.08
-9.26
-12.62
-16.07
-19.51
-22.88
-26.19
-29.53
-33.06
-36.96
-41.29
-45.83
-50.07
-53.17
-54.20
-52.37
-47.30
-39.21
-28.85
-17.38
-6.05
4.08
12.30
18.30
22.19
24.31
25.09
24.98
24.35
23.53
22.81
22.39
22.36
22.65
23.04
23.34
23.42
23.35
23.26
23.26
23.29
23.16
22.58
21.33
19.33
16.67
13.53
10.13
6.68
3.31
0.10
-2.99
-6.08
-9.33
-12.79
-16.38
-19.90
-23.09
-25.86
-28.30
-30.74
-33.59
-37.26
-41.93
-47.46
-53.29
-58.39
-61.53
-61.54
-57.70
-50.06
-39.42
-27.17
-14.77
-3.45
6.10
13.64
19.26
23.17
25.59
26.70
26.77
26.12
25.12
24.14
23.43
23.13
23.21
23.57
24.05
24.50
24.86
25.09
25.21
25.22
25.01
24.39
23.15
21.14
18.37
15.11
11.75
8.67
6.08
3.92
1.96
-0.15
-2.67
-5.71
-9.13
-12.69
-16.12
-19.28
-22.17
-25.00
-28.05
-31.61
-35.88
-40.88
-46.51
-52.41
-57.99
-62.35
-64.40
-63.16
-58.01
-49.10
-37.32
-24.12
-11.14
0.38
9.71
16.82
21.99
25.63
28.04
29.39
29.83
29.63
29.19
28.95
29.23
30.08
31.25
32.41
33.26
33.70
33.79
33.69
33.51
33.30
33.00
32.44
31.43
29.80
27.42
24.30
20.63
16.71
12.92
9.53
6.63
4.07
1.60
-1.03
-4.00
-7.35
-10.99
-14.80
-18.63
-22.35
-25.84
-29.06
-32.12
-35.22
-38.70
-42.93
-48.12
-54.13
-60.31
-65.53
-68.42
-67.77
-62.89
-53.88
-41.68
-27.77
-13.83
-1.29
8.95
16.59
21.82
25.09
26.90
27.65
27.59
26.99
26.13
25.38
25.08
25.44
26.41
27.70
28.93
29.80
30.21
30.27
30.18
30.10
30.07
29.91
29.39
28.21
26.24
23.50
20.25
16.81
13.52
10.55
7.91
5.46
2.98
0.41
-2.26
-4.92
-7.49
-9.98
-12.40
-14.79
-17.10
-19.31
-21.41
-23.58
-26.14
-29.50
-33.96
-39.48
-45.61
-51.40
-55.62
-57.00
-54.63
-48.28
-38.49
-26.46
-13.70
-1.55
9.03
17.64
24.27
29.05
32.08
33.46
33.29
31.88
29.75
27.57
25.95
25.27
25.58
26.59
27.87
29.03
29.81
30.23
30.39
30.39
30.18
29.54
28.22
26.06
23.18
19.89
16.58
13.54
10.80
8.15
5.27
1.91
-1.99
-6.25
-10.61
-14.75
-18.44
-21.59
-24.29
-26.78
-29.52
-32.94
-37.42
-42.99
-49.24
-55.22
-59.65
-61.18
-58.80
-52.22
-42.03
-29.58
-16.57
-4.56
5.52
13.40
19.34
23.66
26.53
27.89
27.71
26.23
24.09
22.09
20.93
20.84
21.54
22.50
23.25
23.67
23.92
24.29
24.92
25.65
26.08
25.84
24.75
22.87
20.45
17.73
14.88
11.97
9.04
6.19
3.48
0.92
-1.66
-4.56
-7.99
-12.01
-16.37
-20.64
-24.44
-27.60
-30.23
-32.71
-35.55
-39.22
-44.03
-49.87
-56.15
-61.78
-65.28
-65.30
-61.01
-52.46
-40.66
-27.22
-13.89
-2.06
7.48
14.58
19.47
22.59
24.41
25.30
25.62
25.63
25.51
25.39
25.38
25.55
25.96
26.62
27.52
28.55
29.61
30.55
31.27
31.65
31.59
30.98
29.78
27.92
25.46
22.49
19.20
15.83
12.65
9.82
7.33
5.03
2.58
-0.29
-3.72
-7.60
-11.63
-15.52
-19.06
-22.24
-25.18
-28.10
-31.32
-35.19
-40.08
-46.12
-53.02
-59.87
-65.22
-67.42
-65.21
-58.24
-47.20
-33.66
-19.57
-6.59
4.24
12.70
19.02
23.64
26.85
28.78
29.45
29.07
28.07
27.03
26.45
26.60
27.40
28.54
29.68
30.55
31.09
31.41
31.65
31.91
32.10
31.96
31.16
29.41
26.68
23.23
19.53
16.13
13.39
11.37
9.79
8.23
6.25
3.64
0.37
-3.40
-7.42
-11.42
-15.17
-18.49
-21.34
-23.83
-26.27
-29.11
-32.86
-37.86
-44.09
-50.92
-57.22
-61.51
-62.41
-59.08
-51.55
-40.70
-28.01
-15.15
-3.43
6.38
14.05
19.71
23.61
26.01
27.15
27.32
26.91
26.37
26.05
26.13
26.61
27.31
28.02
28.57
28.95
29.19
29.42
29.74
30.09
30.30
30.07
29.11
27.23
24.53
21.34
18.13
15.35
13.20
11.53
9.95
7.96
5.24
1.77
-2.09
-5.86
-9.09
-11.57
-13.43
-15.09
-17.19
-20.36
-25.01
-31.13
-38.16
-44.98
-50.19
-52.44
-50.85
-45.29
-36.42
-25.48
-13.96
-3.22
5.84
12.85
17.89
21.35
23.62
24.97
25.52
25.34
24.62
23.71
22.98
22.66
22.75
23.03
23.28
23.41
23.49
23.71
24.11
24.53
24.61
23.97
22.36
19.76
16.38
12.59
8.80
5.32
2.30
-0.31
-2.76
-5.38
-8.48
-12.16
-16.27
-20.43
-24.23
-27.37
-29.90
-32.19
-34.88
-38.58
-43.59
-49.69
-56.03
-61.39
-64.36
-63.79
-59.12
-50.49
-38.84
-25.58
-12.28
-0.29
9.57
17.02
22.21
25.48
27.17
27.52
26.84
25.51
24.03
22.97
22.67
23.20
24.32
25.61
26.72
27.46
27.82
27.94
27.89
27.70
27.32
26.63
25.51
23.85
21.58
18.70
15.39
11.99
8.84
6.21
4.07
2.13
-0.08
-2.94
-6.56
-10.73
-15.05
-19.08
-22.51
-25.34
-27.84
-30.51
-33.92
-38.54
-44.46
-51.20
-57.69
-62.45
-64.03
-61.44
-54.56
-44.07
-31.28
-17.74
-4.85
6.37
15.37
22.02
26.50
29.16
30.46
30.82
30.61
30.08
29.42
28.73
28.11
27.73
27.71
28.15
29.03
30.18
31.38
32.38
32.96
32.97
32.25
30.74
28.43
25.47
22.12
18.73
15.56
12.69
10.00
7.30
4.39
1.16
-2.34
-6.01
-9.69
-13.28
-16.72
-20.09
-23.60
-27.58
-32.35
-37.99
-44.14
-49.90
-54.05
-55.31
-52.85
-46.57
-37.11
-25.73
-13.88
-2.82
6.60
14.05
19.49
23.07
24.95
25.37
24.69
23.42
22.11
21.22
20.94
21.16
21.64
22.13
22.50
22.83
23.22
23.67
24.07
24.17
23.70
22.49
20.55
17.96
14.92
11.65
8.39
5.31
2.48
-0.20
-2.97
-6.09
-9.68
-13.64
-17.66
-21.37
-24.53
-27.15
-29.57
-32.26
-35.64
-40.00
-45.36
-51.32
-57.07
-61.44
-63.15
-61.11
-54.88
-44.88
-32.35
-19.00
-6.44
4.21
12.53
18.75
23.33
26.76
29.27
30.88
31.59
31.52
30.96
30.34
30.05
30.29
30.99
31.93
32.88
33.72
34.42
34.98
35.32
35.28
34.61
33.14
30.87
27.95
24.61
21.10
17.57
14.11
10.80
7.66
4.70
1.88
-0.96
-4.04
-7.56
-11.56
-15.87
-20.09
-23.85
-26.93
-29.46
-31.86
-34.71
-38.53
-43.57
-49.60
-55.91
-61.38
-64.67
-64.57
-60.35
-52.07
-40.59
-27.36
-14.04
-2.03
7.83
15.37
20.81
24.58
27.09
28.66
29.54
29.95
30.11
30.22
30.42
30.78
31.30
31.93
32.53
32.93
33.05
32.85
32.43
31.92
31.41
30.88
30.14
28.92
27.01
24.36
21.12
17.62
14.16
10.96
8.05
5.33
2.63
-0.18
-3.12
-6.20
-9.34
-12.53
-15.80
-19.14
-22.54
-25.95
-29.38
-32.96
-36.95
-41.68
-47.25
-53.37
-59.17
-63.39
-64.76
-62.37
-56.08
-46.48
-34.75
-22.29
-10.31
0.32
9.20
16.21
21.44
25.00
27.05
27.79
27.57
26.86
26.18
25.95
26.43
27.53
28.95
30.28
31.17
31.45
31.20
30.62
29.92
29.20
28.38
27.28
25.68
23.47
20.70
17.55
14.28
11.19
8.47
6.18
4.20
2.27
0.06
-2.66
-5.89
-9.35
-12.62
-15.32
-17.41
-19.15
-21.04
-23.56
-27.02
-31.43
-36.53
-41.83
-46.60
-49.93
-50.79
-48.35
-42.30
-33.10
-21.91
-10.27
0.38
9.10
15.58
20.01
22.78
24.26
24.70
24.30
23.33
22.16
21.13
20.52
20.40
20.70
21.22
21.87
22.62
23.48
24.39
25.13
25.39
24.88
23.47
21.21
18.38
15.24
12.09
9.13
6.42
3.99
1.71
-0.62
-3.23
-6.30
-9.89
-13.94
-18.20
-22.44
-26.53
-30.60
-34.94
-39.80
-45.16
-50.48
-54.76
-56.79
-55.62
-50.89
-42.98
-32.86
-21.76
-10.83
-0.92
7.50
14.20
19.12
22.28
23.79
23.81
22.72
20.97
19.13
17.71
17.07
17.27
18.12
19.26
20.31
21.04
21.36
21.30
20.89
20.10
18.84
17.02
14.66
11.94
9.15
6.60
4.44
2.59
0.76
-1.42
-4.21
-7.60
-11.31
-14.96
-18.19
-20.91
-23.28
-25.75
-28.85
-33.02
-38.41
-44.73
-51.14
-56.43
-59.19
-58.31
-53.25
-44.29
-32.53
-19.52
-6.87
4.15
12.89
19.30
23.73
26.67
28.55
29.61
30.07
30.14
30.11
30.30
30.87
31.76
32.69
33.31
33.38
32.89
32.06
31.20
30.53
30.04
29.52
28.66
27.18
24.97
22.11
18.84
15.43
12.11
9.00
6.04
3.04
-0.22
-3.90
-7.93
-11.99
-15.74
-18.91
-21.56
-24.02
-26.84
-30.52
-35.31
-41.12
-47.49
-53.59
-58.36
-60.64
-59.50
-54.51
-46.01
-35.00
-22.96
-11.30
-1.07
7.28
13.77
18.69
22.34
24.92
26.61
27.59
28.03
28.14
28.07
27.91
27.73
27.58
27.56
27.79
28.27
28.95
29.67
30.23
30.41
30.06
29.01
27.19
24.56
21.24
17.49
13.68
10.23
7.43
5.35
3.70
2.00
-0.28
-3.50
-7.66
-12.41
-17.21
-21.51
-25.06
-27.94
-30.53
-33.31
-36.68
-40.89
-45.94
-51.58
-57.24
-62.01
-64.70
-64.14
-59.52
-50.87
-39.10
-25.75
-12.56
-0.84
8.70
16.03
21.44
25.31
27.87
29.31
29.79
29.57
29.00
28.42
28.00
27.84
27.90
28.12
28.45
28.87
29.39
29.96
30.52
30.89
30.83
30.07
28.39
25.77
22.42
18.75
15.23
12.20
9.78
7.78
5.91
3.81
1.31
-1.61
-4.81
-8.07
-11.16
-14.00
-16.63
-19.29
-22.30
-25.99
-30.49
-35.65
-40.89
-45.27
-47.74
-47.40
-43.78
-37.04
-27.93
-17.58
-7.17
2.35
10.43
16.85
21.58
24.67
26.17
26.17
24.95
23.02
20.94
19.23
18.20
17.85
18.04
18.57
19.30
20.15
21.00
21.63
21.74
21.04
19.42
16.98
14.06
11.07
8.30
5.85
3.53
1.01
-1.98
-5.55
-9.59
-13.78
-17.77
-21.31
-24.37
-27.19
-30.22
-33.94
-38.74
-44.67
-51.32
-57.79
-62.83
-65.17
-63.85
-58.58
-49.80
-38.61
-26.45
-14.72
-4.44
3.81
9.85
13.82
15.99
16.71
16.42
15.59
14.72
14.18
14.19
14.81
15.98
17.57
19.43
21.40
23.23
24.61
25.24
25.04
24.14
22.90
21.69
20.67
19.68
18.31
16.17
13.08
9.17
4.85
0.53
-3.47
-7.00
-10.15
-13.09
-16.15
-19.70
-24.14
-29.64
-35.96
-42.25
-47.19
-49.35
-47.64
-41.80
-32.42
-20.83
-8.58
2.98
12.91
20.82
26.70
30.67
32.93
33.66
33.09
31.56
29.53
27.53
26.01
25.22
25.13
25.50
25.98
26.28
26.23
25.86
25.28
24.58
23.81
22.83
21.42
19.33
16.40
12.69
8.50
4.20
0.16
-3.48
-6.78
-9.97
-13.34
-17.09
-21.38
-26.17
-31.24
-36.13
-40.06
-42.13
-41.52
-37.88
-31.41
-22.86
-13.29
-3.71
5.07
12.55
18.42
22.52
24.75
25.21
24.23
22.39
20.40
18.91
18.36
18.83
20.08
21.67
23.09
23.89
23.81
22.83
21.19
19.24
17.31
15.55
13.78
11.65
8.74
4.88
0.25
-4.65
-9.22
-13.10
-16.23
-18.94
-21.68
-24.91
-28.87
-33.62
-39.00
-44.57
-49.54
-52.85
-53.37
-50.28
-43.41
-33.39
-21.57
-9.51
1.39
10.28
16.92
21.42
24.10
25.24
25.07
23.86
21.97
19.90
18.13
17.10
16.99
17.77
19.12
20.63
21.87
22.54
22.54
21.89
20.74
19.15
17.20
14.90
12.29
9.42
6.38
3.24
0.06
-3.10
-6.20
-9.18
-12.06
-14.93
-18.00
-21.55
-25.87
-31.10
-37.12
-43.45
-49.24
-53.39
-54.78
-52.60
-46.66
-37.47
-26.24
-14.38
-3.25
6.25
13.76
19.27
22.95
24.98
25.52
24.82
23.34
21.70
20.53
20.28
21.00
22.37
23.86
24.95
25.35
25.08
24.35
23.47
22.58
21.66
20.54
18.91
16.51
13.21
9.10
4.53
-0.02
-4.03
-7.23
-9.60
-11.47
-13.38
-15.87
-19.36
-23.89
-29.17
-34.49
-38.85
-41.24
-40.81
-37.21
-30.65
-21.95
-12.24
-2.68
5.88
13.03
18.69
22.96
25.91
27.45
27.48
26.04
23.44
20.33
17.48
15.57
14.89
15.28
16.23
17.13
17.57
17.41
16.77
15.85
14.74
13.40
11.61
9.24
6.27
2.91
-0.54
-3.79
-6.66
-9.22
-11.59
-14.04
-16.76
-19.98
-23.85
-28.49
-33.78
-39.32
-44.28
-47.54
-47.99
-44.92
-38.31
-28.94
-18.10
-7.22
2.58
10.67
16.94
21.52
24.61
26.31
26.72
26.03
24.58
22.87
21.31
20.23
19.71
19.69
20.02
20.56
21.11
21.48
21.44
20.84
19.62
17.85
15.68
13.28
10.72
8.02
5.20
2.28
-0.67
-3.58
-6.48
-9.46
-12.60
-15.99
-19.55
-23.22
-26.96
-30.98
-35.60
-41.19
-47.71
-54.59
-60.65
-64.34
-64.32
-59.89
-51.33
-39.79
-26.95
-14.46
-3.46
5.51
12.51
17.86
21.92
24.93
27.06
28.47
29.34
29.93
30.49
31.18
32.11
33.26
34.49
35.58
36.25
36.21
35.28
33.41
30.71
27.38
23.66
19.76
15.91
12.36
9.33
6.86
4.86
3.01
0.91
-1.71
-4.92
-8.55
-12.30
-15.91
-19.24
-22.38
-25.59
-29.22
-33.56
-38.74
-44.60
-50.56
-55.61
-58.48
-57.99
-53.46
-45.05
-33.78
-21.24
-9.08
1.50
9.99
16.52
21.51
25.28
27.97
29.57
30.15
30.04
29.74
29.79
30.44
31.64
33.03
34.21
34.90
35.02
34.69
34.06
33.28
32.42
31.48
30.41
29.10
27.37
25.11
22.27
18.99
15.58
12.35
9.49
6.87
4.17
1.02
-2.75
-7.06
-11.54
-15.77
-19.50
-22.71
-25.65
-28.70
-32.25
-36.58
-41.77
-47.61
-53.52
-58.57
-61.58
-61.41
-57.35
-49.43
-38.48
-25.90
-13.26
-1.81
7.74
15.23
20.83
24.75
27.20
28.40
28.68
28.54
28.46
28.78
29.52
30.45
31.24
31.69
31.82
31.74
31.58
31.32
30.82
29.96
28.69
27.03
25.03
22.65
19.81
16.51
12.93
9.43
6.38
3.93
1.93
-0.08
-2.56
-5.76
-9.58
-13.62
-17.35
-20.41
-22.73
-24.58
-26.43
-28.80
-32.12
-36.59
-42.13
-48.31
-54.26
-58.87
-60.92
-59.47
-54.21
-45.60
-34.78
-23.28
-12.50
-3.42
3.59
8.63
11.95
13.82
14.38
13.78
12.31
10.37
8.49
7.08
6.38
6.40
6.95
7.77
8.64
9.41
10.02
10.52
10.95
11.34
11.68
11.93
11.97
11.71
11.07
10.02
8.54
6.66
4.52
2.28
0.11
-1.82
-3.52
-5.17
-7.07
-9.57
-12.95
-17.31
-22.46
-27.86
-32.67
-35.81
-36.30
-33.56
-27.59
-19.07
-9.07
1.21
10.75
18.90
25.33
29.87
32.49
33.26
32.42
30.38
27.70
25.01
22.85
21.58
21.33
21.97
23.25
24.80
26.32
27.62
28.60
29.23
29.49
29.29
28.52
27.02
24.70
21.51
17.54
13.03
8.29
3.64
-0.71
-4.75
-8.74
-13.07
-18.13
-24.07
-30.62
-37.07
-42.29
-45.10
-44.51
-40.04
-31.87
-20.84
-8.30
4.16
15.08
23.41
28.70
31.14
31.31
30.03
28.04
25.91
23.99
22.48
21.48
21.08
21.29
22.08
23.33
24.73
25.95
26.64
26.57
25.77
24.50
23.14
21.98
21.00
19.74
17.49
13.53
7.56
-0.20
-9.02
-17.88
-25.83
-32.23
-36.89
-40.10
-42.57
-45.31
-49.37
-55.38
-63.20
-71.58
-78.35
-81.03
-77.75
-68.03
-53.09
-35.39
-17.75
-2.40
9.56
18.06
23.63
26.82
27.99
27.37
25.31
22.44
19.58
17.46
16.46
16.43
16.87
17.16
16.83
15.76
14.23
12.73
11.77
11.59
12.02
12.51
12.27
10.62
7.25
2.35
-3.45
-9.35
-14.62
-18.81
-21.86
-24.06
-25.89
-27.93
-30.70
-34.59
-39.76
-46.03
-52.78
-58.93
-63.15
-64.08
-60.82
-53.25
-42.13
-28.92
-15.38
-2.98
7.33
15.30
21.18
25.39
28.31
30.18
31.14
31.26
30.72
29.76
28.68
27.76
27.15
26.89
26.88
26.91
26.78
26.35
25.63
24.69
23.63
22.43
20.92
18.79
15.79
11.81
7.09
2.10
-2.59
-6.57
-9.75
-12.41
-15.04
-18.21
-22.33
-27.60
-33.92
-40.87
-47.78
-53.64
-57.29
-57.58
-53.80
-45.96
-34.96
-22.29
-9.64
1.61
10.76
17.72
22.78
26.23
28.32
29.22
29.20
28.69
28.19
28.11
28.53
29.27
30.00
30.45
30.52
30.28
29.80
29.14
28.24
26.93
25.11
22.76
19.93
16.76
13.36
9.79
6.07
2.21
-1.72
-5.62
-9.32
-12.74
-15.90
-18.95
-22.14
-25.78
-30.09
-35.18
-40.85
-46.58
-51.46
-54.34
-54.05
-49.82
-41.59
-30.13
-16.85
-3.48
8.49
18.06
24.92
29.28
31.66
32.61
32.57
31.85
30.74
29.52
28.49
27.94
27.95
28.46
29.19
29.85
30.22
30.25
30.04
29.70
29.23
28.43
27.00
24.70
21.53
17.79
13.94
10.42
7.44
4.92
2.55
0.04
-2.76
-5.78
-8.88
-11.91
-14.84
-17.75
-20.79
-24.12
-27.89
-32.28
-37.44
-43.33
-49.57
-55.24
-59.09
-59.79
-56.43
-48.91
-37.99
-25.14
-12.02
-0.04
9.98
17.75
23.33
26.89
28.64
28.85
27.97
26.61
25.41
24.85
25.10
26.00
27.16
28.19
28.82
28.98
28.79
28.44
28.07
27.72
27.24
26.40
24.94
22.71
19.80
16.53
13.29
10.41
8.00
5.99
4.14
2.13
-0.23
-3.02
-6.13
-9.33
-12.40
-15.19
-17.72
-20.22
-23.05
-26.54
-30.86
-35.82
-40.86
-45.03
-47.23
-46.47
-42.20
-34.54
-24.28
-12.75
-1.39
8.61
16.57
22.31
26.01
27.99
28.53
27.90
26.37
24.31
22.19
20.49
19.57
19.52
20.16
21.11
22.00
22.57
22.75
22.69
22.49
22.17
21.57
20.42
18.57
16.03
13.08
10.07
7.32
4.92
2.72
0.49
-2.01
-4.85
-7.96
-11.14
-14.25
-17.22
-20.08
-22.99
-26.21
-30.07
-34.84
-40.47
-46.45
-51.82
-55.30
-55.77
-52.52
-45.59
-35.73
-24.12
-12.14
-0.98
8.50
15.93
21.26
24.72
26.66
27.41
27.25
26.45
25.33
24.25
23.57
23.46
23.86
24.44
24.88
24.94
24.63
24.17
23.78
23.51
23.23
22.61
21.34
19.27
16.47
13.20
9.80
6.57
3.67
1.06
-1.44
-4.10
-7.18
-10.75
-14.66
-18.56
-22.04
-24.84
-26.98
-28.83
-30.97
-34.00
-38.23
-43.50
-49.15
-54.12
-57.21
-57.44
-54.21
-47.60
-38.22
-27.19
-15.75
-5.04
4.16
11.55
17.17
21.25
24.03
25.68
26.33
26.13
25.36
24.41
23.66
23.37
23.59
24.11
24.64
24.92
24.87
24.59
24.23
23.88
23.43
22.59
21.00
18.52
15.25
11.59
8.04
4.98
2.53
0.46
-1.63
-4.12
-7.16
-10.66
-14.30
-17.70
-20.62
-23.03
-25.09
-27.08
-29.37
-32.31
-36.18
-41.07
-46.71
-52.37
-56.88
-58.93
-57.44
-52.03
-43.15
-32.03
-20.23
-9.15
0.35
7.99
13.92
18.41
21.62
23.64
24.52
24.43
23.72
22.82
22.11
21.76
21.77
21.99
22.30
22.66
23.09
23.61
24.12
24.42
24.28
23.47
21.91
19.67
16.95
14.03
11.25
8.83
6.84
5.20
3.69
2.00
-0.10
-2.76
-5.92
-9.40
-12.91
-16.15
-18.99
-21.49
-23.92
-26.70
-30.26
-34.87
-40.47
-46.55
-52.13
-55.89
-56.55
-53.23
-45.82
-35.15
-22.68
-10.10
1.15
10.16
16.69
20.92
23.23
24.06
23.84
23.02
22.04
21.27
20.90
20.95
21.34
21.92
22.65
23.48
24.36
25.11
25.44
25.07
23.85
21.91
19.55
17.14
14.92
12.89
10.86
8.58
5.91
2.86
-0.41
-3.70
-6.85
-9.83
-12.64
-15.35
-18.02
-20.77
-23.75
-27.18
-31.22
-35.89
-40.87
-45.53
-48.90
-49.91
-47.72
-41.96
-33.05
-22.00
-10.24
0.83
10.22
17.47
22.55
25.64
26.94
26.74
25.40
23.53
21.82
20.90
21.04
22.09
23.58
24.94
25.79
26.06
25.94
25.76
25.70
25.73
25.57
24.81
23.11
20.32
16.64
12.48
8.36
4.69
1.63
-0.91
-3.20
-5.59
-8.33
-11.57
-15.28
-19.27
-23.31
-27.15
-30.73
-34.20
-37.93
-42.32
-47.59
-53.51
-59.36
-63.98
-66.08
-64.61
-59.11
-49.89
-37.98
-24.84
-11.98
-0.54
8.84
16.11
21.51
25.42
28.17
29.91
30.79
30.93
30.60
30.09
29.68
29.58
29.82
30.31
30.89
31.40
31.72
31.76
31.45
30.76
29.61
27.99
25.91
23.43
20.67
17.77
14.88
12.17
9.72
7.57
5.65
3.78
1.76
-0.60
-3.37
-6.50
-9.83
-13.17
-16.37
-19.42
-22.45
-25.76
-29.70
-34.51
-40.23
-46.58
-52.93
-58.34
-61.70
-61.96
-58.41
-50.91
-40.07
-27.15
-13.74
-1.38
8.83
16.42
21.50
24.56
26.22
27.02
27.36
27.53
27.74
28.18
28.94
30.01
31.24
32.42
33.38
34.05
34.43
34.59
34.54
34.24
33.55
32.31
30.45
27.99
25.11
22.03
18.97
16.10
13.48
11.06
8.80
6.63
4.54
2.57
0.68
-1.22
-3.35
-5.90
-8.94
-12.38
-15.93
-19.27
-22.23
-24.84
-27.39
-30.34
-34.13
-39.04
-44.96
-51.34
-57.15
-61.08
-61.84
-58.63
-51.43
-41.03
-28.84
-16.40
-4.98
4.71
12.46
18.42
22.82
25.87
27.72
28.51
28.53
28.15
27.79
27.79
28.23
28.99
29.79
30.42
30.77
30.95
31.09
31.28
31.40
31.18
30.37
28.86
26.81
24.51
22.30
20.32
18.46
16.51
14.23
11.59
8.75
5.97
3.50
1.44
-0.26
-1.82
-3.47
-5.43
-7.81
-10.64
-13.86
-17.30
-20.74
-23.98
-26.91
-29.56
-32.14
-35.05
-38.69
-43.28
-48.64
-54.01
-58.16
-59.67
-57.44
-51.13
-41.31
-29.35
-16.94
-5.55
3.95
11.34
16.87
20.92
23.76
25.43
25.93
25.37
24.09
22.61
21.46
21.00
21.32
22.26
23.50
24.75
25.82
26.60
27.08
27.26
27.08
26.50
25.46
23.96
22.03
19.72
17.07
14.15
11.00
7.81
4.79
2.21
0.21
-1.22
-2.34
-3.47
-4.91
-6.80
-9.07
-11.50
-13.91
-16.16
-18.23
-20.25
-22.37
-24.85
-27.99
-32.00
-36.81
-41.92
-46.38
-48.88
-48.22
-43.76
-35.64
-24.86
-12.92
-1.30
8.93
17.26
23.59
27.97
30.35
30.75
29.35
26.73
23.81
21.54
20.58
21.04
22.49
24.21
25.55
26.16
26.05
25.49
24.81
24.24
23.87
23.63
23.39
22.97
22.24
21.12
19.59
17.65
15.32
12.67
9.77
6.71
3.58
0.38
-2.90
-6.24
-9.57
-12.76
-15.66
-18.23
-20.64
-23.17
-26.19
-30.03
-34.81
-40.38
-46.28
-51.69
-55.60
-56.96
-55.01
-49.57
-41.21
-31.01
-20.25
-10.01
-0.90
6.85
13.24
18.23
21.69
23.49
23.66
22.50
20.56
18.48
16.86
16.08
16.27
17.30
18.80
20.35
21.59
22.28
22.43
22.10
21.34
20.15
18.50
16.39
13.96
11.42
9.00
6.85
4.93
3.08
1.09
-1.35
-4.45
-8.24
-12.55
-16.97
-21.00
-24.24
-26.58
-28.25
-29.73
-31.64
-34.54
-38.85
-44.61
-51.39
-58.13
-63.33
-65.41
-63.22
-56.52
-46.06
-33.32
-20.04
-7.63
2.96
11.37
17.63
22.00
24.79
26.34
26.93
26.82
26.19
25.21
24.10
23.10
22.40
22.13
22.30
22.87
23.72
24.76
25.88
26.94
27.74
28.07
27.75
26.64
24.68
21.86
18.29
14.26
10.22
6.66
3.97
2.19
0.99
-0.22
-1.98
-4.59
-7.99
-11.82
-15.67
-19.21
-22.28
-24.94
-27.43
-30.15
-33.59
-38.14
-43.89
-50.38
-56.57
-61.04
-62.37
-59.65
-52.78
-42.51
-30.18
-17.35
-5.43
4.67
12.51
18.20
22.05
24.50
25.96
26.74
27.13
27.37
27.64
28.05
28.55
29.04
29.41
29.62
29.70
29.69
29.61
29.43
29.10
28.58
27.90
27.08
26.14
24.99
23.55
21.67
19.29
16.45
13.30
10.13
7.23
4.81
2.87
1.21
-0.56
-2.82
-5.76
-9.28
-13.11
-16.88
-20.36
-23.52
-26.51
-29.55
-32.91
-36.76
-41.24
-46.29
-51.58
-56.38
-59.70
-60.44
-57.76
-51.38
-41.78
-30.08
-17.75
-6.17
3.66
11.31
16.85
20.62
23.01
24.36
24.89
24.86
24.50
24.18
24.19
24.71
25.72
26.99
28.24
29.23
29.85
30.10
30.03
29.66
28.98
28.00
26.80
25.50
24.19
22.86
21.40
19.70
17.67
15.35
12.86
10.38
8.01
5.80
3.74
1.71
-0.40
-2.76
-5.47
-8.54
-11.87
-15.20
-18.26
-20.82
-22.86
-24.63
-26.57
-29.26
-33.15
-38.35
-44.44
-50.45
-55.15
-57.27
-55.94
-50.92
-42.65
-32.12
-20.63
-9.48
0.32
8.15
13.88
17.72
20.03
21.20
21.54
21.32
20.76
20.13
19.71
19.69
20.16
21.05
22.22
23.47
24.59
25.38
25.71
25.53
24.87
23.80
22.46
20.91
19.24
17.50
15.81
14.25
12.88
11.68
10.51
9.20
7.59
5.59
3.18
0.42
-2.52
-5.43
-8.08
-10.32
-12.17
-13.85
-15.68
-17.99
-21.00
-24.77
-29.16
-33.89
-38.40
-41.90
-43.48
-42.28
-37.95
-30.74
-21.55
-11.61
-2.07
6.32
13.27
18.79
22.94
25.73
27.12
27.13
25.96
24.00
21.80
19.87
18.65
18.40
19.18
20.82
22.96
25.15
26.92
27.94
28.02
27.15
25.43
23.03
20.19
17.13
14.09
11.28
8.83
6.78
5.01
3.27
1.18
-1.61
-5.22
-9.47
-13.92
-18.02
-21.34
-23.69
-25.25
-26.36
-27.54
-29.29
-32.15
-36.44
-42.08
-48.35
-53.88
-56.97
-56.20
-51.01
-41.92
-30.37
-18.10
-6.60
3.19
10.97
16.79
20.91
23.61
25.29
26.28
26.94
27.50
28.08
28.70
29.35
29.98
30.49
30.83
30.89
30.64
30.22
29.85
29.75
29.95
30.22
30.15
29.33
27.51
24.74
21.34
17.72
14.25
11.12
8.33
5.74
3.18
0.54
-2.21
-5.07
-8.05
-11.19
-14.48
-17.80
-20.94
-23.66
-25.89
-27.88
-30.20
-33.49
-38.23
-44.26
-50.79
-56.49
-59.89
-59.85
-55.89
-48.35
-38.16
-26.60
-14.93
-4.18
4.99
12.23
17.45
20.81
22.65
23.46
23.79
24.09
24.65
25.50
26.55
27.61
28.59
29.39
29.92
30.07
29.77
29.09
28.20
27.38
26.83
26.55
26.36
25.95
25.02
23.45
21.16
18.25
14.87
11.27
7.75
4.61
1.98
-0.22
-2.28
-4.58
-7.39
-10.71
-14.32
-17.91
-21.22
-24.15
-26.84
-29.55
-32.59
-36.27
-40.73
-45.81
-51.02
-55.41
-57.93
-57.60
-53.90
-46.84
-37.12
-25.77
-14.07
-3.14
6.21
13.58
18.93
22.53
24.71
25.84
26.19
26.00
25.46
24.84
24.37
24.28
24.70
25.60
26.88
28.35
29.75
30.80
31.23
30.89
29.76
28.01
25.90
23.74
21.69
19.82
18.06
16.30
14.35
12.09
9.49
6.60
3.58
0.64
-2.04
-4.43
-6.60
-8.73
-10.95
-13.31
-15.75
-18.17
-20.48
-22.77
-25.21
-28.10
-31.72
-36.23
-41.55
-47.20
-52.34
-55.86
-56.76
-54.38
-48.68
-40.21
-29.99
-19.13
-8.65
0.70
8.48
14.50
18.76
21.44
22.83
23.30
23.19
22.77
22.19
21.60
21.14
21.01
21.38
22.30
23.63
25.05
26.21
26.80
26.73
26.10
25.09
23.92
22.67
21.33
19.83
18.07
16.04
13.75
11.28
8.70
6.06
3.48
1.10
-0.96
-2.62
-4.01
-5.37
-7.03
-9.24
-12.05
-15.25
-18.50
-21.45
-23.96
-26.13
-28.29
-30.85
-34.16
-38.29
-42.98
-47.61
-51.29
-53.04
-52.04
-47.91
-40.75
-31.21
-20.29
-9.17
1.09
9.69
16.24
20.77
23.54
24.89
25.10
24.41
23.04
21.37
19.84
18.92
18.87
19.63
20.85
22.09
22.99
23.43
23.47
23.25
22.85
22.25
21.34
20.09
18.53
16.76
14.92
13.08
11.22
9.26
7.12
4.77
2.28
-0.21
-2.58
-4.75
-6.80
-8.83
-10.93
-13.13
-15.38
-17.67
-20.07
-22.77
-25.98
-29.80
-34.06
-38.30
-41.81
-43.78
-43.51
-40.61
-35.03
-27.19
-17.84
-7.96
1.42
9.51
15.86
20.39
23.27
24.75
25.06
24.39
22.98
21.20
19.47
18.20
17.62
17.74
18.37
19.27
20.23
21.09
21.77
22.17
22.23
21.93
21.25
20.15
18.58
16.49
13.86
10.87
7.77
4.86
2.31
0.12
-1.93
-4.13
-6.71
-9.77
-13.16
-16.58
-19.70
-22.28
-24.30
-26.03
-27.98
-30.70
-34.60
-39.71
-45.51
-51.01
-54.93
-56.06
-53.63
-47.60
-38.64
-27.97
-16.89
-6.51
2.44
9.62
14.97
18.59
20.71
21.64
21.77
21.52
21.23
21.16
21.43
22.07
23.03
24.19
25.38
26.47
27.36
28.02
28.48
28.79
28.91
28.72
28.06
26.73
24.61
21.71
18.18
14.32
10.52
7.12
4.37
2.26
0.57
-1.09
-3.09
-5.68
-8.91
-12.62
-16.59
-20.54
-24.29
-27.86
-31.41
-35.22
-39.56
-44.48
-49.66
-54.44
-57.91
-59.12
-57.44
-52.65
-45.07
-35.44
-24.74
-13.98
-3.98
4.71
11.86
17.49
21.72
24.68
26.46
27.14
26.90
26.10
25.22
24.69
24.77
25.43
26.39
27.33
28.01
28.32
28.30
28.00
27.49
26.74
25.74
24.46
22.86
20.92
18.61
16.00
13.22
10.46
7.90
5.57
3.38
1.13
-1.36
-4.13
-7.10
-10.05
-12.78
-15.20
-17.37
-19.47
-21.72
-24.34
-27.44
-31.10
-35.36
-40.21
-45.48
-50.69
-55.01
-57.31
-56.57
-52.22
-44.46
-34.19
-22.80
-11.67
-1.83
6.25
12.53
17.24
20.67
22.97
24.29
24.76
24.57
24.02
23.49
23.31
23.64
24.50
25.73
27.14
28.54
29.80
30.81
31.48
31.71
31.44
30.64
29.29
27.42
25.07
22.32
19.34
16.36
13.55
11.01
8.61
6.13
3.35
0.20
-3.17
-6.48
-9.46
-11.92
-13.90
-15.59
-17.33
-19.46
-22.28
-25.99
-30.56
-35.69
-40.72
-44.74
-46.76
-45.95
-42.00
-35.14
-26.18
-16.21
-6.30
2.71
10.29
16.22
20.46
23.12
24.41
24.65
24.20
23.44
22.67
22.06
21.69
21.54
21.58
21.74
21.98
22.27
22.57
22.82
22.98
23.01
22.80
22.25
21.16
19.36
16.86
13.81
10.59
7.67
5.42
3.86
2.66
1.24
-1.02
-4.38
-8.69
-13.41
-17.88
-21.62
-24.59
-27.04
-29.44
-32.25
-35.84
-40.32
-45.53
-50.95
-55.73
-58.74
-58.90
-55.47
-48.36
-38.28
-26.51
-14.54
-3.67
5.35
12.32
17.42
21.05
23.56
25.18
26.05
26.33
26.21
25.95
25.82
26.04
26.68
27.69
28.90
30.12
31.15
31.78
31.91
31.51
30.67
29.47
27.98
26.16
23.89
21.10
17.87
14.51
11.39
8.83
6.86
5.21
3.46
1.21
-1.74
-5.32
-9.22
-13.08
-16.64
-19.85
-22.78
-25.65
-28.71
-32.21
-36.43
-41.57
-47.62
-54.08
-59.85
-63.56
-63.90
-60.17
-52.56
-42.16
-30.45
-18.88
-8.37
0.70
8.27
14.42
19.17
22.54
24.65
25.78
26.32
26.61
26.89
27.22
27.63
28.10
28.65
29.26
29.90
30.47
30.81
30.81
30.42
29.65
28.52
27.03
25.13
22.82
20.22
17.60
15.27
13.45
12.11
10.89
9.28
6.82
3.34
-0.98
-5.64
-10.02
-13.70
-16.57
-18.86
-21.02
-23.50
-26.62
-30.43
-34.84
-39.73
-45.00
-50.38
-55.33
-58.92
-59.98
-57.56
-51.28
-41.69
-30.10
-18.10
-7.09
2.14
9.41
14.99
19.19
22.24
24.25
25.24
25.35
24.84
24.07
23.40
23.13
23.40
24.20
25.41
26.81
28.19
29.35
30.18
30.56
30.40
29.52
27.78
25.16
21.86
18.34
15.16
12.79
11.42
10.79
10.30
9.18
6.90
3.34
-1.15
-5.91
-10.27
-13.84
-16.64
-19.00
-21.37
-24.16
-27.51
-31.47
-35.94
-40.80
-45.72
-50.02
-52.65
-52.37
-48.27
-40.19
-28.96
-16.19
-3.69
7.08
15.40
21.26
25.02
27.09
27.76
27.26
25.91
24.21
22.79
22.17
22.56
23.78
25.39
26.90
27.93
28.40
28.44
28.38
28.45
28.64
28.62
27.86
25.94
22.77
18.79
14.75
11.38
9.02
7.48
6.10
4.18
1.27
-2.59
-7.00
-11.42
-15.40
-18.76
-21.55
-24.06
-26.64
-29.75
-33.84
-39.18
-45.73
-52.94
-59.79
-64.94
-67.13
-65.55
-60.05
-51.21
-40.05
-27.85
-15.83
-4.93
4.19
11.32
16.57
20.28
22.85
24.66
25.90
26.63
26.87
26.73
26.46
26.39
26.80
27.71
28.93
30.12
31.00
31.49
31.66
31.65
31.54
31.21
30.41
28.91
26.70
23.95
21.00
18.16
15.55
13.08
10.56
7.77
4.57
0.96
-2.98
-7.08
-11.15
-15.00
-18.51
-21.68
-24.61
-27.58
-30.93
-35.06
-40.28
-46.71
-54.09
-61.66
-68.21
-72.27
-72.54
-68.34
-59.87
-48.24
-35.08
-22.07
-10.50
-0.93
6.63
12.59
17.43
21.43
24.70
27.24
29.08
30.33
31.24
32.02
32.86
33.83
34.94
36.17
37.45
38.71
39.81
40.56
40.78
40.37
39.36
37.86
35.96
33.79
31.35
28.62
25.60
22.36
19.00
15.66
12.43
9.34
6.31
3.22
-0.10
-3.76
-7.78
-12.05
-16.33
-20.35
-23.94
-27.10
-30.07
-33.31
-37.30
-42.43
-48.80
-56.11
-63.54
-69.87
-73.67
-73.73
-69.39
-60.83
-49.08
-35.67
-22.20
-9.93
0.47
8.91
15.62
20.95
25.19
28.49
30.96
32.71
33.91
34.80
35.64
36.60
37.75
39.07
40.51
41.97
43.37
44.62
45.53
45.89
45.53
44.34
42.36
39.70
36.51
32.94
29.16
25.36
21.79
18.62
15.87
13.33
10.58
7.16
2.78
-2.55
-8.52
-14.65
-20.47
-25.66
-30.05
-33.65
-36.53
-38.84
-40.78
-42.64
-44.79
-47.67
-51.56
-56.51
-62.13
-67.43
-71.06
-71.52
-67.60
-58.79
-45.46
-28.72
-10.14
8.58
25.76
39.81
49.42
53.83
53.19
48.64
42.09
35.63
30.83
28.30
27.80
28.60
29.97
31.55
33.18
34.80
36.21
37.16
37.42
36.98
36.10
35.06
34.03
33.04
31.83
30.11
27.65
24.47
20.79
16.93
13.21
9.77
6.56
3.35
-0.07
-3.82
-7.92
-12.22
-16.56
-20.71
-24.46
-27.71
-30.53
-33.17
-36.11
-39.81
-44.58
-50.28
-56.30
-61.58
-64.88
-65.12
-61.66
-54.54
-44.42
-32.42
-19.91
-8.14
1.96
9.91
15.62
19.32
21.38
22.25
22.36
22.12
21.89
21.99
22.58
23.66
25.04
26.37
27.35
27.82
27.79
27.45
27.01
26.59
26.15
25.55
24.60
23.21
21.35
19.09
16.58
13.98
11.46
9.11
6.92
4.77
2.51
0.04
-2.60
-5.26
-7.75
-9.97
-11.96
-13.91
-16.07
-18.70
-21.99
-26.05
-30.84
-36.09
-41.18
-45.16
-46.94
-45.61
-40.84
-33.02
-23.16
-12.58
-2.49
6.28
13.34
18.63
22.16
24.00
24.23
23.04
20.85
18.23
15.79
14.04
13.26
13.46
14.46
15.98
17.72
19.38
20.75
21.67
21.96
21.50
20.18
18.02
15.18
11.98
8.79
5.93
3.51
1.37
-0.83
-3.45
-6.67
-10.43
-14.42
-18.23
-21.53
-24.22
-26.51
-28.78
-31.52
-35.10
-39.70
-45.23
-51.22
-56.86
-61.09
-62.74
-60.92
-55.33
-46.42
-35.25
-23.25
-11.79
-1.86
6.04
11.84
15.76
18.12
19.27
19.53
19.25
18.79
18.47
18.49
18.93
19.68
20.51
21.25
21.82
22.31
22.91
23.70
24.57
25.12
24.90
23.53
20.97
17.52
13.72
10.17
7.20
4.83
2.76
0.60
-1.98
-5.05
-8.43
-11.82
-14.96
-17.72
-20.17
-22.46
-24.81
-27.50
-30.83
-35.10
-40.40
-46.42
-52.33
-56.87
-58.63
-56.58
-50.40
-40.65
-28.60
-15.83
-3.79
6.57
14.85
21.14
25.77
29.07
31.30
32.59
33.11
33.10
32.85
32.71
32.93
33.55
34.48
35.54
36.51
37.25
37.74
37.98
37.95
37.54
36.54
34.80
32.25
29.05
25.52
22.09
19.04
16.47
14.18
11.78
8.92
5.39
1.24
-3.24
-7.68
-11.76
-15.30
-18.35
-21.06
-23.72
-26.69
-30.35
-35.06
-40.95
-47.77
-54.78
-60.76
-64.31
-64.25
-60.05
-52.01
-41.18
-29.02
-16.99
-6.20
2.81
9.97
15.51
19.72
22.82
24.94
26.20
26.74
26.84
26.85
27.10
27.79
28.92
30.33
31.75
32.94
33.74
34.08
34.04
33.66
33.04
32.20
31.10
29.66
27.82
25.53
22.86
19.93
16.88
13.90
11.03
8.28
5.54
2.66
-0.50
-3.95
-7.52
-10.93
-13.89
-16.28
-18.22
-20.12
-22.43
-25.64
-30.02
-35.59
-42.02
-48.54
-54.07
-57.33
-57.18
-52.97
-44.81
-33.65
-20.92
-8.24
3.09
12.28
19.07
23.61
26.22
27.32
27.31
26.61
25.63
24.74
24.23
24.21
24.59
25.17
25.71
26.06
26.21
26.22
26.17
26.11
25.95
25.47
24.45
22.71
20.24
17.23
14.01
10.89
8.06
5.51
3.08
0.51
-2.31
-5.39
-8.59
-11.70
-14.57
-17.10
-19.40
-21.66
-24.30
-27.75
-32.36
-38.10
-44.41
-50.19
-54.05
-54.76
-51.63
-44.75
-34.97
-23.57
-11.95
-1.22
7.86
15.01
20.18
23.53
25.28
25.70
25.17
24.12
23.08
22.44
22.46
23.09
24.10
25.13
25.91
26.32
26.43
26.40
26.31
26.13
25.69
24.76
23.18
20.92
18.08
14.90
11.64
8.49
5.49
2.56
-0.47
-3.80
-7.55
-11.70
-16.07
-20.35
-24.20
-27.41
-30.10
-32.65
-35.66
-39.74
-45.21
-51.91
-59.03
-65.31
-69.30
-69.75
-66.03
-58.30
-47.46
-34.87
-21.96
-9.91
0.54
9.08
15.72
20.60
23.94
26.00
27.06
27.41
27.41
27.34
27.40
27.68
28.09
28.50
28.77
28.85
28.82
28.82
28.92
29.08
29.10
28.69
27.61
25.70
23.04
19.86
16.47
13.20
10.23
7.58
5.10
2.54
-0.26
-3.35
-6.60
-9.84
-12.96
-15.97
-18.99
-22.21
-25.78
-29.80
-34.35
-39.44
-45.08
-51.07
-56.93
-61.77
-64.44
-63.84
-59.29
-50.88
-39.56
-26.82
-14.27
-3.13
6.03
13.26
18.90
23.34
26.74
29.15
30.58
31.17
31.22
31.12
31.18
31.55
32.19
32.89
33.49
33.86
34.06
34.18
34.30
34.37
34.13
33.30
31.58
28.90
25.47
21.66
17.93
14.60
11.76
9.29
6.86
4.16
0.99
-2.62
-6.44
-10.16
-13.55
-16.51
-19.14
-21.70
-24.51
-27.96
-32.34
-37.74
-43.91
-50.13
-55.28
-58.08
-57.43
-52.81
-44.50
-33.47
-21.18
-9.05
1.74
10.56
17.27
22.07
25.32
27.34
28.41
28.72
28.49
27.98
27.51
27.34
27.63
28.35
29.32
30.29
30.98
31.28
31.20
30.87
30.38
29.71
28.65
26.96
24.42
21.08
17.20
13.22
9.53
6.36
3.67
1.21
-1.31
-4.14
-7.34
-10.77
-14.21
-17.45
-20.44
-23.28
-26.20
-29.43
-33.15
-37.48
-42.57
-48.40
-54.73
-60.85
-65.59
-67.55
-65.55
-59.14
-48.86
-36.04
-22.38
-9.45
1.68
10.56
17.13
21.59
24.27
25.46
25.59
25.10
24.52
24.33
24.86
26.21
28.18
30.37
32.33
33.71
34.37
34.41
34.03
33.42
32.68
31.81
30.79
29.51
27.88
25.75
23.02
19.71
15.99
12.17
8.57
5.37
2.48
-0.34
-3.36
-6.71
-10.32
-13.99
-17.50
-20.79
-23.95
-27.15
-30.48
-33.95
-37.58
-41.46
-45.81
-50.85
-56.47
-62.04
-66.31
-67.83
-65.34
-58.36
-47.45
-34.03
-19.95
-6.90
4.05
12.57
18.89
23.47
26.71
28.83
29.94
30.22
29.94
29.53
29.36
29.64
30.32
31.20
32.02
32.63
33.04
33.32
33.56
33.75
33.75
33.32
32.21
30.28
27.55
24.26
20.81
17.58
14.88
12.77
11.06
9.44
7.53
5.07
1.99
-1.58
-5.38
-9.10
-12.51
-15.51
-18.14
-20.63
-23.32
-26.59
-30.74
-35.78
-41.35
-46.63
-50.46
-51.65
-49.32
-43.27
-34.08
-22.95
-11.35
-0.61
8.42
15.43
20.54
23.98
26.01
26.72
26.27
24.88
23.03
21.27
20.09
19.68
19.97
20.69
21.58
22.48
23.40
24.37
25.30
25.97
26.05
25.26
23.46
20.73
17.36
13.71
10.14
6.90
4.12
1.74
-0.41
-2.63
-5.19
-8.25
-11.79
-15.61
-19.38
-22.83
-25.79
-28.31
-30.68
-33.29
-36.53
-40.70
-45.80
-51.45
-56.86
-60.86
-62.22
-59.95
-53.75
-44.09
-32.15
-19.38
-7.17
3.51
12.22
18.94
23.87
27.26
29.25
29.98
29.58
28.33
26.69
25.22
24.39
24.48
25.38
26.67
27.81
28.37
28.28
27.72
27.03
26.43
25.87
25.06
23.65
21.46
18.54
15.25
12.01
9.10
6.57
4.21
1.67
-1.32
-4.89
-8.93
-13.22
-17.44
-21.33
-24.69
-27.47
-29.83
-32.12
-34.83
-38.46
-43.19
-48.80
-54.51
-59.19
-61.60
-60.72
-56.08
-47.86
-36.88
-24.39
-11.79
-0.29
9.31
16.69
21.96
25.42
27.42
28.26
28.22
27.61
26.79
26.16
26.01
26.37
26.98
27.41
27.28
26.48
25.25
24.04
23.23
22.93
22.92
22.77
22.03
20.49
18.15
15.27
12.22
9.31
6.71
4.43
2.30
0.05
-2.59
-5.72
-9.22
-12.82
-16.25
-19.37
-22.24
-25.04
-27.96
-31.15
-34.70
-38.69
-43.16
-47.91
-52.34
-55.42
-55.97
-53.09
-46.52
-36.85
-25.33
-13.48
-2.57
6.64
13.90
19.32
23.11
25.40
26.29
25.88
24.48
22.63
20.99
20.12
20.29
21.36
22.90
24.42
25.61
26.44
27.02
27.47
27.72
27.50
26.50
24.59
21.89
18.72
15.48
12.41
9.56
6.78
3.87
0.75
-2.55
-5.86
-8.96
-11.66
-13.96
-15.93
-17.81
-19.89
-22.46
-25.77
-29.90
-34.74
-39.86
-44.52
-47.73
-48.46
-45.97
-40.11
-31.35
-20.75
-9.66
0.72
9.51
16.28
21.00
23.85
25.12
25.15
24.30
22.92
21.33
19.83
18.62
17.80
17.39
17.34
17.56
17.95
18.39
18.79
19.04
19.01
18.58
17.64
16.16
14.19
11.87
9.36
6.73
3.96
0.95
-2.36
-5.89
-9.47
-12.88
-15.93
-18.64
-21.18
-23.92
-27.28
-31.55
-36.84
-42.89
-49.05
-54.31
-57.51
-57.58
-53.92
-46.61
-36.42
-24.63
-12.64
-1.66
7.53
14.65
19.77
23.22
25.36
26.53
26.98
26.90
26.52
26.02
25.62
25.51
25.75
26.23
26.79
27.24
27.46
27.42
27.12
26.52
25.45
23.72
21.22
18.04
14.55
11.26
8.55
6.56
5.02
3.43
1.29
-1.65
-5.37
-9.57
-13.90
-18.09
-22.02
-25.75
-29.40
-33.25
-37.64
-42.87
-49.02
-55.61
-61.54
-65.33
-65.51
-61.23
-52.64
-40.82
-27.44
-14.17
-2.24
7.75
15.72
21.83
26.27
29.17
30.63
30.90
30.39
29.67
29.31
29.66
30.72
32.15
33.47
34.32
34.60
34.48
34.32
34.33
34.49
34.50
33.93
32.41
29.85
26.45
22.66
18.95
15.65
12.82
10.26
7.66
4.69
1.18
-2.81
-7.09
-11.38
-15.41
-19.06
-22.41
-25.68
-29.24
-33.43
-38.52
-44.57
-51.27
-57.91
-63.36
-66.30
-65.59
-60.69
-51.87
-40.23
-27.32
-14.68
-3.42
5.93
13.37
19.17
23.61
26.87
29.03
30.20
30.62
30.65
30.68
31.03
31.76
32.73
33.62
34.21
34.42
34.35
34.20
34.08
33.94
33.54
32.59
30.87
28.36
25.23
21.75
18.25
14.98
12.04
9.42
6.95
4.41
1.62
-1.57
-5.18
-9.13
-13.24
-17.32
-21.12
-24.47
-27.31
-29.76
-32.12
-34.82
-38.31
-42.91
-48.65
-55.12
-61.40
-66.18
-68.04
-65.89
-59.39
-49.10
-36.41
-23.03
-10.57
-0.15
7.83
13.49
17.30
19.79
21.40
22.45
23.14
23.73
24.44
25.56
27.20
29.25
31.42
33.29
34.55
35.12
35.19
35.06
34.94
34.81
34.43
33.46
31.70
29.08
25.79
22.19
18.63
15.41
12.65
10.26
8.05
5.78
3.26
0.53
-2.29
-5.02
-7.54
-9.85
-12.05
-14.31
-16.81
-19.73
-23.21
-27.34
-31.99
-36.75
-40.87
-43.45
-43.61
-40.80
-34.97
-26.59
-16.54
-5.89
4.33
13.27
20.35
25.30
28.14
29.13
28.66
27.23
25.30
23.32
21.61
20.46
20.01
20.27
21.08
22.13
23.04
23.46
23.17
22.15
20.53
18.53
16.36
14.23
12.20
10.29
8.43
6.49
4.31
1.75
-1.29
-4.81
-8.62
-12.45
-15.94
-18.90
-21.34
-23.59
-26.14
-29.48
-33.92
-39.32
-45.12
-50.28
-53.52
-53.63
-49.82
-42.04
-31.06
-18.36
-5.63
5.64
14.52
20.72
24.45
26.10
26.19
25.20
23.66
22.12
21.01
20.61
20.93
21.77
22.82
23.76
24.35
24.49
24.18
23.47
22.46
21.18
19.58
17.59
15.17
12.35
9.23
5.95
2.61
-0.71
-3.99
-7.20
-10.30
-13.28
-16.17
-19.04
-21.99
-25.16
-28.71
-32.90
-37.97
-44.01
-50.70
-57.25
-62.37
-64.71
-63.21
-57.53
-48.19
-36.37
-23.52
-11.06
0.01
9.17
16.28
21.51
25.12
27.41
28.67
29.18
29.21
29.00
28.79
28.69
28.74
28.89
29.08
29.22
29.26
29.16
28.81
28.06
26.73
24.75
22.22
19.36
16.46
13.66
10.94
8.12
4.99
1.40
-2.62
-6.90
-11.26
-15.54
-19.66
-23.68
-27.67
-31.84
-36.43
-41.70
-47.70
-54.10
-60.10
-64.50
-66.04
-63.82
-57.62
-48.01
-36.17
-23.55
-11.41
-0.63
8.41
15.62
21.08
24.91
27.23
28.30
28.44
28.05
27.55
27.19
27.04
27.06
27.13
27.24
27.43
27.83
28.47
29.18
29.63
29.42
28.25
26.05
23.04
19.62
16.15
12.89
9.87
6.95
3.98
0.77
-2.77
-6.70
-10.98
-15.48
-19.98
-24.21
-28.00
-31.40
-34.77
-38.66
-43.52
-49.39
-55.69
-61.22
-64.53
-64.31
-59.84
-51.31
-39.70
-26.56
-13.53
-1.93
7.52
14.70
19.88
23.47
25.75
26.89
27.04
26.47
25.66
25.15
25.35
26.32
27.79
29.35
30.68
31.65
32.32
32.79
32.99
32.73
31.75
29.97
27.48
24.57
21.53
18.58
15.74
12.87
9.81
6.47
2.91
-0.69
-4.14
-7.36
-10.39
-13.41
-16.62
-20.26
-24.54
-29.53
-35.16
-41.00
-46.23
-49.74
-50.38
-47.37
-40.62
-30.87
-19.37
-7.53
3.48
12.97
20.63
26.41
30.31
32.43
32.90
32.07
30.42
28.52
26.93
25.98
25.82
26.39
27.50
28.88
30.23
31.22
31.51
30.87
29.21
26.67
23.61
20.46
17.53
14.92
12.44
9.75
6.56
2.79
-1.36
-5.51
-9.32
-12.60
-15.43
-18.10
-21.02
-24.61
-29.20
-34.91
-41.46
-48.13
-53.78
-57.07
-56.82
-52.49
-44.31
-33.30
-20.95
-8.73
2.23
11.41
18.67
24.17
28.06
30.50
31.65
31.82
31.40
30.86
30.52
30.47
30.61
30.74
30.71
30.53
30.33
30.21
30.13
29.88
29.16
27.73
25.50
22.58
19.22
15.67
12.18
8.88
5.82
2.94
0.10
-2.90
-6.25
-9.99
-14.03
-18.10
-21.93
-25.37
-28.51
-31.69
-35.45
-40.23
-46.17
-52.86
-59.29
-64.03
-65.60
-62.98
-55.91
-45.11
-32.01
-18.36
-5.73
4.90
13.19
19.36
23.91
27.29
29.82
31.58
32.66
33.12
33.19
33.12
33.12
33.27
33.47
33.58
33.51
33.27
33.00
32.80
32.62
32.28
31.52
30.13
28.08
25.52
22.69
19.84
17.13
14.56
12.11
9.67
7.14
4.38
1.24
-2.42
-6.61
-11.13
-15.63
-19.75
-23.23
-26.13
-28.86
-31.97
-36.05
-41.39
-47.88
-54.89
-61.37
-66.00
-67.49
-65.00
-58.41
-48.40
-36.32
-23.69
-11.88
-1.66
6.76
13.65
19.36
24.17
28.10
30.99
32.68
33.16
32.72
31.83
30.98
30.53
30.53
30.81
31.07
31.14
30.98
30.70
30.34
29.77
28.72
26.88
24.09
20.50
16.51
12.69
9.51
7.21
5.75
4.78
3.89
2.60
0.68
-1.93
-5.05
-8.37
-11.59
-14.59
-17.44
-20.40
-23.78
-27.86
-32.71
-38.19
-43.90
-49.16
-53.08
-54.71
-53.21
-48.19
-39.86
-29.14
-17.33
-5.81
4.39
12.76
19.24
24.02
27.28
29.17
29.80
29.44
28.47
27.34
26.44
25.95
25.83
25.90
25.97
25.91
25.66
25.26
24.76
24.17
23.47
22.56
21.33
19.67
17.60
15.23
12.79
10.51
8.48
6.62
4.65
2.26
-0.78
-4.50
-8.62
-12.72
-16.36
-19.30
-21.55
-23.37
-25.20
-27.48
-30.57
-34.63
-39.52
-44.72
-49.36
-52.28
-52.40
-49.01
-42.09
-32.36
-21.10
-9.80
0.30
8.47
14.54
18.73
21.39
22.83
23.24
22.76
21.60
20.10
18.64
17.59
17.19
17.44
18.17
19.12
19.95
20.40
20.28
19.50
18.11
16.23
14.00
11.51
8.78
5.83
2.76
-0.27
-3.08
-5.55
-7.76
-9.89
-12.16
-14.70
-17.56
-20.70
-24.13
-27.92
-32.14
-36.70
-41.28
-45.24
-47.74
-47.90
-45.08
-39.12
-30.42
-19.90
-8.81
1.61
10.42
17.13
21.69
24.37
25.59
25.72
25.07
23.85
22.36
20.88
19.78
19.31
19.56
20.40
21.52
22.54
23.14
23.12
22.47
21.22
19.46
17.29
14.82
12.18
9.45
6.67
3.78
0.71
-2.64
-6.27
-10.08
-13.90
-17.56
-20.97
-24.20
-27.40
-30.84
-34.76
-39.28
-44.31
-49.44
-53.89
-56.64
-56.69
-53.29
-46.32
-36.33
-24.54
-12.43
-1.41
7.58
14.21
18.70
21.57
23.37
24.49
25.09
25.25
25.06
24.70
24.44
24.49
24.89
25.49
26.03
26.23
25.97
25.34
24.48
23.55
22.54
21.29
19.60
17.37
14.61
11.47
8.08
4.57
0.96
-2.71
-6.39
-9.98
-13.38
-16.63
-19.84
-23.21
-26.94
-31.21
-36.05
-41.32
-46.67
-51.42
-54.67
-55.39
-52.77
-46.53
-37.10
-25.58
-13.45
-2.13
7.36
14.56
19.54
22.67
24.40
25.14
25.18
24.80
24.23
23.71
23.40
23.37
23.59
23.98
24.44
24.91
25.29
25.45
25.22
24.45
23.10
21.26
19.13
16.92
14.73
12.51
10.09
7.35
4.26
0.93
-2.43
-5.66
-8.70
-11.59
-14.41
-17.28
-20.28
-23.59
-27.39
-31.87
-37.01
-42.36
-47.06
-49.96
-49.98
-46.47
-39.47
-29.74
-18.52
-7.22
2.89
10.98
16.74
20.31
22.10
22.56
22.08
20.94
19.42
17.86
16.67
16.23
16.68
17.87
19.33
20.55
21.14
20.99
20.23
19.08
17.72
16.16
14.29
12.03
9.31
6.18
2.74
-0.82
-4.31
-7.53
-10.34
-12.73
-14.88
-17.10
-19.81
-23.31
-27.70
-32.78
-38.06
-42.87
-46.38
-47.81
-46.49
-42.08
-34.76
-25.26
-14.75
-4.44
4.64
11.94
17.38
21.14
23.52
24.75
25.01
24.54
23.61
22.60
21.83
21.48
21.61
22.09
22.74
23.29
23.49
23.15
22.24
20.86
19.24
17.58
15.93
14.22
12.22
9.78
6.85
3.57
0.19
-3.10
-6.22
-9.24
-12.26
-15.37
-18.57
-21.84
-25.24
-28.98
-33.38
-38.72
-44.92
-51.43
-57.14
-60.63
-60.64
-56.48
-48.33
-37.18
-24.57
-12.14
-1.15
7.72
14.39
19.14
22.41
24.59
25.97
26.77
27.20
27.47
27.71
28.00
28.25
28.37
28.28
28.00
27.65
27.38
27.20
27.05
26.72
25.98
24.68
22.73
20.16
17.16
13.98
10.94
8.25
5.95
3.86
1.64
-0.98
-4.14
-7.68
-11.30
-14.70
-17.76
-20.63
-23.60
-27.04
-31.19
-36.18
-41.83
-47.59
-52.59
-55.65
-55.65
-51.89
-44.39
-34.00
-22.15
-10.34
0.20
8.86
15.52
20.43
23.87
26.08
27.22
27.44
26.96
26.11
25.23
24.67
24.63
25.12
26.00
26.98
27.80
28.29
28.40
28.17
27.67
26.89
25.79
24.32
22.46
20.28
17.87
15.35
12.81
10.31
7.84
5.33
2.61
-0.50
-4.05
-7.90
-11.72
-15.10
-17.82
-19.98
-22.04
-24.62
-28.23
-33.08
-38.96
-45.28
-51.21
-55.72
-57.84
-56.78
-52.21
-44.35
-34.06
-22.59
-11.26
-1.11
7.29
13.83
18.72
22.27
24.71
26.19
26.80
26.69
26.13
25.45
25.08
25.30
26.17
27.47
28.73
29.50
29.48
28.69
27.48
26.23
25.23
24.41
23.44
21.88
19.53
16.55
13.35
10.38
7.91
5.90
4.06
2.08
-0.20
-2.76
-5.46
-8.15
-10.75
-13.30
-15.92
-18.73
-21.87
-25.42
-29.43
-33.89
-38.60
-43.11
-46.73
-48.58
-47.83
-43.96
-37.04
-27.75
-17.28
-6.93
2.23
9.57
14.99
18.69
20.99
22.13
22.28
21.60
20.36
18.94
17.80
17.34
17.80
19.12
21.03
23.10
24.87
26.03
26.44
26.12
25.20
23.85
22.18
20.22
17.99
15.47
12.71
9.83
6.95
4.21
1.60
-0.97
-3.69
-6.72
-10.06
-13.57
-16.92
-19.82
-22.17
-24.13
-26.12
-28.69
-32.30
-37.11
-42.85
-48.83
-54.00
-57.25
-57.59
-54.47
-47.94
-38.68
-27.80
-16.58
-6.12
2.87
10.15
15.78
19.98
22.92
24.75
25.59
25.61
25.09
24.38
23.82
23.68
24.01
24.76
25.75
26.79
27.75
28.53
29.06
29.25
28.97
28.10
26.52
24.24
21.37
18.14
14.85
11.79
9.14
6.91
4.96
3.02
0.77
-1.99
-5.27
-8.91
-12.58
-15.99
-18.92
-21.32
-23.31
-25.21
-27.45
-30.56
-34.94
-40.66
-47.31
-53.89
-59.04
-61.35
-59.79
-54.01
-44.50
-32.48
-19.49
-7.07
3.64
12.07
18.19
22.37
25.12
26.90
28.05
28.74
29.11
29.24
29.23
29.20
29.24
29.39
29.60
29.76
29.76
29.49
29.01
28.38
27.74
27.04
26.12
24.73
22.65
19.91
16.75
13.56
10.69
8.27
6.18
4.18
1.96
-0.69
-3.79
-7.21
-10.72
-14.05
-17.01
-19.55
-21.84
-24.19
-27.03
-30.74
-35.54
-41.31
-47.52
-53.26
-57.38
-58.77
-56.68
-50.97
-42.22
-31.50
-20.12
-9.22
0.42
8.46
14.81
19.56
22.76
24.48
24.86
24.22
23.03
21.85
21.15
21.12
21.68
22.48
23.19
23.54
23.53
23.34
23.22
23.30
23.55
23.72
23.48
22.61
21.03
18.89
16.45
13.98
11.65
9.51
7.50
5.48
3.38
1.10
-1.33
-3.90
-6.57
-9.29
-12.07
-14.97
-18.09
-21.63
-25.80
-30.76
-36.48
-42.62
-48.37
-52.60
-54.18
-52.31
-46.90
-38.56
-28.46
-17.90
-7.98
0.59
7.52
12.73
16.29
18.35
19.12
18.86
17.91
16.64
15.37
14.39
13.96
14.18
15.02
16.29
17.66
18.81
19.49
19.59
19.17
18.31
17.11
15.59
13.76
11.64
9.32
6.93
4.58
2.29
-0.06
-2.57
-5.30
-8.15
-10.93
-13.47
-15.75
-17.95
-20.38
-23.36
-27.06
-31.42
-36.11
-40.58
-44.07
-45.72
-44.79
-40.82
-33.89
-24.70
-14.43
-4.44
4.22
11.00
15.95
19.46
21.96
23.71
24.76
25.05
24.66
23.79
22.82
22.08
21.81
22.04
22.64
23.44
24.20
24.69
24.71
24.10
22.83
21.01
18.88
16.64
14.36
11.92
9.07
5.66
1.72
-2.46
-6.51
-10.11
-13.17
-15.89
-18.64
-21.82
-25.72
-30.38
-35.60
-40.84
-45.30
-48.05
-48.20
-45.17
-38.91
-29.97
-19.41
-8.45
1.78
10.51
17.35
22.30
25.57
27.43
28.19
28.13
27.55
26.78
26.09
25.70
25.66
25.95
26.43
26.96
27.40
27.67
27.71
27.47
26.88
25.81
24.15
21.82
18.92
15.70
12.52
9.67
7.22
4.96
2.48
-0.55
-4.27
-8.48
-12.76
-16.72
-20.11
-23.00
-25.70
-28.67
-32.38
-37.20
-43.20
-50.02
-56.78
-62.18
-64.86
-63.82
-58.74
-50.10
-39.03
-26.96
-15.21
-4.78
3.84
10.58
15.63
19.34
22.08
24.14
25.72
26.97
28.04
29.03
30.07
31.19
32.35
33.40
34.21
34.67
34.80
34.69
34.44
34.07
33.52
32.60
31.09
28.85
25.86
22.30
18.50
14.84
11.62
8.98
6.84
4.95
2.97
0.59
-2.35
-5.83
-9.73
-13.82
-17.88
-21.73
-25.24
-28.45
-31.52
-34.81
-38.80
-43.83
-49.89
-56.40
-62.19
-65.79
-65.88
-61.76
-53.64
-42.54
-29.95
-17.38
-5.97
3.64
11.30
17.13
21.39
24.39
26.42
27.80
28.80
29.61
30.33
31.00
31.64
32.32
33.15
34.19
35.40
36.65
37.70
38.34
38.47
38.06
37.19
35.92
34.29
32.30
29.98
27.34
24.44
21.36
18.17
14.94
11.76
8.69
5.79
3.07
0.45
-2.15
-4.82
-7.58
-10.41
-13.24
-16.04
-18.86
-21.74
-24.83
-28.25
-32.16
-36.72
-41.92
-47.54
-52.96
-57.18
-59.02
-57.49
-52.13
-43.28
-32.03
-19.84
-8.13
2.07
10.30
16.56
21.08
24.14
25.95
26.73
26.73
26.24
25.62
25.20
25.24
25.80
26.87
28.24
29.62
30.73
31.39
31.54
31.29
30.74
30.01
29.10
27.91
26.39
24.50
22.31
19.96
17.56
15.16
12.82
10.51
8.22
5.96
3.71
1.42
-1.00
-3.69
-6.68
-9.94
-13.32
-16.66
-19.81
-22.75
-25.60
-28.53
-31.78
-35.51
-39.74
-44.27
-48.58
-51.86
-53.20
-51.73
-47.03
-39.26
-29.22
-18.11
-7.27
2.27
9.98
15.79
19.97
22.88
24.72
25.59
25.53
24.68
23.34
21.98
21.04
20.78
21.22
22.17
23.35
24.56
25.67
26.59
27.26
27.50
27.14
26.03
24.19
21.76
19.04
16.29
13.76
11.51
9.51
7.58
5.52
3.13
0.32
-2.89
-6.41
-10.00
-13.43
-16.55
-19.28
-21.68
-23.96
-26.36
-29.17
-32.67
-37.02
-42.15
-47.55
-52.31
-55.25
-55.30
-51.80
-44.78
-34.97
-23.54
-11.82
-0.96
8.29
15.57
20.90
24.51
26.75
27.88
28.15
27.75
26.89
25.87
25.01
24.59
24.73
25.35
26.30
27.39
28.49
29.45
30.10
30.22
29.67
28.42
26.60
24.46
22.22
20.01
17.80
15.50
13.04
10.36
7.49
4.50
1.50
-1.40
-4.19
-6.86
-9.51
-12.23
-15.05
-17.95
-20.84
-23.67
-26.49
-29.38
-32.48
-35.93
-39.87
-44.32
-49.19
-54.11
-58.33
-60.89
-60.76
-57.24
-50.27
-40.46
-28.95
-17.08
-6.02
3.46
11.03
16.69
20.65
23.19
24.55
25.02
24.85
24.35
23.80
23.46
23.47
23.88
24.56
25.32
25.98
26.39
26.53
26.39
26.03
25.47
24.70
23.70
22.41
20.83
18.96
16.87
14.65
12.43
10.30
8.27
6.25
4.10
1.69
-1.03
-4.00
-7.07
-10.12
-13.11
-16.02
-18.87
-21.65
-24.38
-27.12
-30.05
-33.46
-37.61
-42.53
-47.89
-52.90
-56.49
-57.55
-55.29
-49.49
-40.62
-29.73
-18.14
-7.13
2.39
10.01
15.71
19.75
22.45
24.05
24.76
24.74
24.17
23.27
22.29
21.47
21.00
20.92
21.17
21.63
22.13
22.65
23.20
23.76
24.16
24.12
23.29
21.45
18.64
15.23
11.76
8.70
6.32
4.55
3.05
1.37
-0.85
-3.76
-7.23
-10.90
-14.36
-17.30
-19.71
-21.77
-23.91
-26.51
-29.83
-33.88
-38.35
-42.61
-45.80
-47.03
-45.57
-41.16
-34.08
-25.12
-15.34
-5.76
2.83
10.01
15.62
19.67
22.25
23.50
23.60
22.84
21.56
20.13
18.88
18.07
17.76
17.94
18.47
19.20
19.97
20.68
21.19
21.40
21.21
20.53
19.29
17.49
15.20
12.54
9.68
6.77
3.88
1.00
-1.99
-5.18
-8.58
-12.10
-15.54
-18.67
-21.37
-23.65
-25.71
-27.91
-30.68
-34.39
-39.13
-44.58
-49.96
-54.19
-56.10
-54.85
-50.13
-42.29
-32.20
-21.05
-10.05
-0.16
8.03
14.36
18.94
22.08
24.08
25.19
25.57
25.41
24.94
24.40
23.98
23.82
23.92
24.23
24.69
25.19
25.61
25.77
25.49
24.65
23.25
21.38
19.24
16.99
14.77
12.63
10.61
8.69
6.74
4.52
1.76
-1.72
-5.86
-10.30
-14.56
-18.17
-20.95
-23.08
-25.04
-27.46
-30.89
-35.58
-41.46
-47.99
-54.31
-59.28
-61.72
-60.75
-56.03
-47.93
-37.50
-26.13
-15.15
-5.52
2.42
8.73
13.70
17.61
20.55
22.55
23.62
23.93
23.73
23.35
23.06
23.02
23.21
23.55
23.94
24.27
24.50
24.52
24.30
23.73
22.75
21.32
19.45
17.17
14.60
11.88
9.19
6.72
4.58
2.73
1.00
-0.94
-3.41
-6.58
-10.44
-14.72
-19.06
-23.05
-26.46
-29.23
-31.53
-33.69
-36.10
-39.09
-42.81
-47.09
-51.36
-54.70
-56.00
-54.33
-49.22
-40.89
-30.24
-18.61
-7.34
2.60
10.72
17.04
21.74
25.09
27.22
28.28
28.47
28.10
27.57
27.19
27.21
27.67
28.57
29.79
31.19
32.57
33.67
34.18
33.88
32.68
30.69
28.21
25.62
23.22
21.14
19.35
17.56
15.47
12.80
9.51
5.79
1.98
-1.52
-4.48
-6.88
-8.96
-11.10
-13.74
-17.20
-21.59
-26.64
-31.68
-35.72
-37.69
-36.74
-32.58
-25.53
-16.50
-6.65
2.92
11.34
18.10
22.97
25.99
27.44
27.71
27.28
26.59
25.93
25.50
25.40
25.76
26.62
27.91
29.32
30.39
30.66
29.95
28.40
26.46
24.60
23.10
21.93
20.81
19.39
17.32
14.46
10.80
6.56
2.06
-2.29
-6.20
-9.56
-12.59
-15.79
-19.69
-24.66
-30.69
-37.29
-43.54
-48.36
-50.72
-49.93
-45.84
-38.87
-29.88
-19.94
-10.08
-1.05
6.63
12.78
17.38
20.56
22.54
23.62
24.14
24.37
24.51
24.64
24.77
24.90
25.00
25.07
25.11
25.10
25.01
24.78
24.29
23.42
22.07
20.15
17.74
15.02
12.25
9.61
7.11
4.54
1.61
-1.87
-5.88
-10.09
-14.09
-17.54
-20.40
-22.95
-25.64
-28.96
-33.24
-38.54
-44.62
-50.89
-56.40
-60.01
-60.61
-57.51
-50.72
-41.03
-29.76
-18.33
-7.83
1.14
8.46
14.31
18.89
22.42
25.00
26.78
27.95
28.66
29.06
29.20
29.12
28.83
28.44
28.12
28.04
28.29
28.81
29.31
29.42
28.77
27.13
24.55
21.26
17.63
14.07
10.82
7.99
5.48
3.07
0.49
-2.43
-5.71
-9.23
-12.81
-16.30
-19.64
-22.91
-26.31
-30.15
-34.70
-40.06
-45.92
-51.53
-55.74
-57.34
-55.49
-50.00
-41.44
-30.89
-19.64
-8.83
0.74
8.62
14.74
19.20
22.26
24.23
25.37
25.91
26.07
26.07
26.16
26.56
27.34
28.40
29.45
30.23
30.64
30.74
30.69
30.52
30.09
29.12
27.33
24.64
21.24
17.55
14.05
11.13
8.87
7.12
5.47
3.50
0.89
-2.42
-6.25
-10.22
-13.96
-17.22
-19.95
-22.33
-24.69
-27.42
-30.91
-35.43
-40.89
-46.82
-52.29
-56.09
-57.09
-54.55
-48.39
-39.25
-28.31
-16.93
-6.33
2.71
9.83
15.05
18.56
20.64
21.57
21.67
21.33
20.96
20.96
21.57
22.76
24.27
25.74
26.85
27.51
27.85
28.11
28.42
28.72
28.75
28.20
26.86
24.78
22.15
19.27
16.35
13.57
11.03
8.84
7.03
5.53
4.11
2.40
0.06
-3.08
-6.84
-10.85
-14.63
-17.81
-20.37
-22.57
-24.91
-27.91
-31.88
-36.68
-41.76
-46.19
-48.95
-49.13
-46.29
-40.45
-32.15
-22.30
-12.00
-2.28
6.04
12.49
16.95
19.51
20.48
20.23
19.19
17.86
16.76
16.28
16.60
17.63
19.06
20.46
21.41
21.72
21.42
20.77
20.08
19.55
19.16
18.59
17.41
15.33
12.32
8.69
4.92
1.45
-1.51
-3.98
-6.12
-8.10
-10.06
-12.14
-14.50
-17.35
-20.81
-24.80
-29.21
-33.92
-38.94
-44.42
-50.42
-56.73
-62.71
-67.34
-69.50
-68.30
-63.37
-54.99
-44.08
-31.94
-19.97
-9.27
-0.53
6.09
10.77
13.83
15.56
16.18
15.92
15.14
14.30
13.84
13.96
14.60
15.46
16.25
16.80
17.17
17.59
18.22
19.04
19.81
20.16
19.72
18.31
15.98
13.01
9.82
6.79
4.19
2.04
0.19
-1.68
-3.83
-6.42
-9.41
-12.59
-15.67
-18.32
-20.34
-21.68
-22.52
-23.18
-24.06
-25.36
-26.95
-28.33
-28.71
-27.27
-23.50
-17.33
-9.22
0.02
9.40
18.03
25.26
30.70
34.25
36.02
36.28
35.46
33.98
32.18
30.30
28.45
26.67
25.11
23.97
23.56
24.15
25.80
28.24
30.97
