1636531444.00
64.000000
-0.00
-0.00
-0.00
-0.00
-0.00
-0.00
-0.00
-0.00
-0.00
-0.00
0.00
0.01
0.01
-0.00
-0.03
-0.05
-0.05
0.00
0.13
0.36
0.66
1.01
1.37
1.72
2.06
2.40
2.79
3.24
3.80
4.42
5.06
5.66
6.20
6.68
7.15
7.68
8.31
9.14
10.09
11.04
11.88
12.56
13.14
13.76
14.65
15.96
17.91
20.32
22.90
25.38
27.58
29.57
31.68
34.32
37.81
42.54
48.15
54.10
59.83
64.97
69.58
74.14
79.34
85.71
93.76
103.00
112.62
121.73
129.77
136.75
143.30
150.75
157.77
166.64
177.95
191.79
206.97
220.57
228.25
225.36
208.53
176.87
132.76
80.05
23.07
-34.94
-92.44
-149.16
-205.23
-260.37
-313.74
-363.87
-409.83
-450.91
-486.50
-515.74
-537.23
-549.22
-549.96
-538.37
-514.21
-478.67
-433.88
-382.45
-327.02
-269.84
-212.63
-156.66
-102.95
-52.37
-5.90
35.58
71.43
101.35
125.50
144.38
158.69
169.15
176.37
180.75
182.57
182.07
179.51
175.23
169.65
163.18
156.15
148.81
141.30
133.69
126.02
118.33
110.69
103.16
95.80
88.68
81.83
75.25
68.95
62.95
57.25
51.86
46.78
42.03
37.58
33.45
29.62
26.08
22.82
19.85
17.16
14.73
12.57
10.66
8.98
7.54
6.30
5.25
4.37
3.64
3.04
2.56
2.18
1.88
1.65
1.49
1.37
1.31
1.27
1.27
1.30
1.35
1.42
1.52
1.64
1.78
1.94
2.12
2.33
2.56
2.82
3.10
3.42
3.76
4.15
4.57
5.02
5.52
6.05
6.62
7.24
7.90
8.61
9.37
10.18
11.03
11.93
12.88
13.88
14.94
16.06
17.25
18.51
19.83
21.19
22.56
23.88
25.06
26.01
26.58
26.67
26.14
24.91
22.93
20.19
16.76
12.71
8.22
3.51
-1.23
-5.76
-9.88
-13.41
-16.24
-18.30
-19.58
-20.10
-19.98
-19.30
-18.19
-16.78
-15.15
-13.41
-11.58
-9.71
-7.78
-5.84
-3.88
-1.90
0.11
2.17
4.30
6.53
8.88
11.43
14.08
16.81
19.61
22.47
25.41
28.45
31.67
35.12
38.95
42.99
47.15
51.40
55.70
60.06
64.55
69.22
74.25
79.83
85.70
91.72
97.80
103.89
109.94
116.00
122.16
128.53
135.31
142.05
148.42
154.09
158.66
161.73
162.80
161.14
155.58
148.53
140.61
132.03
122.84
112.99
102.54
91.68
80.79
70.34
60.77
51.72
42.81
33.52
23.45
12.43
0.68
-11.27
-22.74
-33.12
-42.68
-51.95
-61.70
-72.63
-85.09
-98.85
-113.27
-127.54
-140.95
-153.56
-165.74
-178.22
-191.91
-207.78
-226.74
-249.07
-273.87
-298.65
-319.62
-332.58
-334.35
-324.11
-303.74
-277.09
-248.44
-221.03
-196.34
-174.44
-154.66
-136.51
-119.98
-105.33
-92.69
-81.77
-72.00
-62.78
-53.83
-45.30
-37.63
-31.36
-26.71
-23.59
-21.56
-20.13
-18.96
-18.04
-17.56
-17.65
-18.14
-18.43
-17.68
-15.10
-10.28
-3.30
5.27
14.64
24.01
32.73
40.44
46.97
52.38
56.82
60.45
63.39
65.65
67.11
67.67
67.29
66.10
64.36
62.35
60.28
58.25
56.28
54.33
52.42
50.59
48.83
47.14
45.44
43.67
41.70
39.42
36.76
33.71
30.30
26.66
22.90
19.08
15.17
11.13
6.94
2.64
-1.60
-5.64
-9.41
-12.92
-16.30
-19.74
-23.45
-27.59
-32.22
-37.18
-42.06
-46.22
-48.94
-49.64
-48.02
-44.18
-38.50
-31.56
-23.96
-16.16
-8.50
-1.07
6.09
13.01
19.63
25.73
31.07
35.44
38.75
41.11
42.71
43.76
44.36
44.55
44.30
43.62
42.56
41.22
39.75
38.26
36.83
35.44
34.05
32.50
30.69
28.57
26.19
23.65
21.10
18.56
15.96
13.16
10.04
6.57
2.87
-0.85
-4.43
-7.77
-10.89
-13.90
-16.99
-20.31
-23.97
-28.05
-32.52
-37.21
-41.80
-45.79
-48.52
-49.39
-47.92
-44.02
-37.99
-30.49
-22.32
-14.19
-6.58
0.32
6.56
12.20
17.23
21.50
24.84
27.20
28.68
29.53
30.05
30.44
30.71
30.75
30.42
29.67
28.62
27.49
26.52
25.79
25.19
24.46
23.37
21.76
19.69
17.36
14.99
12.80
10.85
9.10
7.42
5.67
3.69
1.38
-1.28
-4.23
-7.32
-10.36
-13.22
-15.86
-18.33
-20.83
-23.51
-26.55
-30.05
-33.95
-38.02
-41.82
-44.78
-46.27
-45.81
-43.18
-38.54
-32.37
-25.31
-18.04
-11.04
-4.62
1.12
6.19
10.67
14.63
18.14
21.18
23.71
25.63
26.90
27.54
27.60
27.25
26.66
25.97
25.29
24.69
24.16
23.63
23.01
22.15
20.91
19.28
17.31
15.15
12.94
10.75
8.49
6.05
3.25
0.05
-3.44
-6.98
-10.29
-13.20
-15.72
-18.10
-20.65
-23.71
-27.44
-31.74
-36.30
-40.62
-44.14
-46.35
-46.81
-45.27
-41.72
-36.39
-29.75
-22.40
-14.92
-7.77
-1.18
4.80
10.22
15.11
19.48
23.23
26.24
28.42
29.71
30.20
30.10
29.69
29.26
28.96
28.81
28.65
28.33
27.71
26.77
25.48
23.85
21.85
19.49
16.84
14.06
11.37
8.90
6.66
4.48
2.11
-0.64
-3.81
-7.32
-10.93
-14.45
-17.76
-20.84
-23.83
-26.95
-30.47
-34.60
-39.37
-44.56
-49.65
-53.93
-56.61
-57.10
-55.11
-50.75
-44.44
-36.81
-28.53
-20.19
-12.19
-4.72
2.22
8.72
14.82
20.47
25.43
29.47
32.40
34.26
35.25
35.67
35.75
35.61
35.28
34.79
34.21
33.66
33.21
32.80
32.21
31.15
29.43
27.08
24.31
21.48
18.88
16.61
14.52
12.35
9.76
6.58
2.85
-1.19
-5.24
-8.98
-12.25
-15.03
-17.49
-19.95
-22.79
-26.32
-30.65
-35.58
-40.55
-44.78
-47.47
-48.05
-46.31
-42.42
-36.86
-30.19
-22.98
-15.64
-8.47
-1.63
4.75
10.59
15.85
20.45
24.33
27.37
29.50
30.67
30.93
30.45
29.49
28.39
27.46
26.90
26.73
26.79
26.81
26.51
25.67
24.26
22.37
20.15
17.73
15.17
12.45
9.57
6.57
3.53
0.57
-2.29
-5.10
-7.96
-11.01
-14.35
-18.01
-22.03
-26.43
-31.16
-36.10
-40.89
-44.96
-47.58
-48.07
-46.04
-41.52
-34.97
-27.13
-18.81
-10.63
-2.96
4.05
10.38
16.05
21.06
25.30
28.69
31.19
32.79
33.57
33.66
33.21
32.41
31.42
30.37
29.32
28.25
27.12
25.91
24.61
23.21
21.69
20.01
18.17
16.20
14.13
12.02
9.87
7.61
5.11
2.24
-1.09
-4.83
-8.91
-13.21
-17.62
-22.03
-26.37
-30.57
-34.69
-38.85
-43.27
-48.08
-53.16
-58.06
-62.03
-64.27
-64.22
-61.69
-56.88
-50.30
-42.45
-33.81
-24.72
-15.52
-6.57
1.81
9.39
16.11
22.05
27.33
31.95
35.82
38.79
40.76
41.76
41.93
41.52
40.79
39.92
39.04
38.22
37.46
36.74
35.94
34.84
33.24
30.99
28.11
24.77
21.26
17.86
14.68
11.66
8.59
5.23
1.48
-2.61
-6.85
-11.05
-15.13
-19.13
-23.24
-27.61
-32.37
-37.57
-43.07
-48.59
-53.70
-57.85
-60.42
-60.85
-58.80
-54.25
-47.55
-39.33
-30.36
-21.30
-12.56
-4.26
3.67
11.33
18.67
25.49
31.41
36.13
39.46
41.50
42.52
42.85
42.81
42.60
42.28
41.86
41.26
40.44
39.36
38.02
36.44
34.66
32.72
30.60
28.32
25.87
23.32
20.72
18.11
15.47
12.69
9.67
6.32
2.71
-1.00
-4.59
-7.92
-11.04
-14.12
-17.40
-21.11
-25.37
-30.17
-35.36
-40.75
-46.00
-50.66
-54.18
-55.95
-55.49
-52.55
-47.25
-40.01
-31.46
-22.25
-12.93
-3.92
4.53
12.22
18.98
24.64
29.07
32.25
34.28
35.42
35.90
36.00
35.82
35.39
34.68
33.68
32.44
31.11
29.81
28.62
27.51
26.35
24.95
23.11
20.72
17.82
14.54
11.12
7.78
4.63
1.62
-1.37
-4.43
-7.61
-10.85
-14.01
-17.08
-20.09
-23.23
-26.70
-30.67
-35.19
-40.10
-45.03
-49.43
-52.68
-54.18
-53.54
-50.68
-45.82
-39.43
-32.02
-24.09
-15.99
-8.01
-0.31
6.93
13.59
19.54
24.70
28.97
32.31
34.69
36.13
36.77
36.79
36.41
35.83
35.14
34.42
33.68
32.90
32.09
31.23
30.29
29.20
27.90
26.37
24.58
22.54
20.32
17.93
15.41
12.78
10.05
7.20
4.21
1.06
-2.25
-5.70
-9.24
-12.81
-16.36
-19.83
-23.26
-26.76
-30.48
-34.63
-39.23
-44.17
-49.03
-53.21
-56.06
-57.02
-55.82
-52.52
-47.41
-40.97
-33.73
-26.16
-18.63
-11.38
-4.50
1.99
8.08
13.74
18.85
23.26
26.89
29.67
31.66
32.93
33.62
33.90
33.94
33.89
33.85
33.84
33.82
33.67
33.29
32.57
31.44
29.90
27.98
25.82
23.55
21.29
19.02
16.61
13.87
10.68
7.09
3.26
-0.53
-4.12
-7.44
-10.62
-13.83
-17.23
-20.97
-25.07
-29.44
-33.76
-37.55
-40.16
-41.04
-39.89
-36.79
-32.14
-26.54
-20.54
-14.54
-8.73
-3.16
2.15
7.10
11.60
15.55
18.88
21.63
23.84
25.58
26.90
27.79
28.22
28.18
27.69
26.88
25.98
25.18
24.65
24.40
24.30
24.12
23.57
22.44
20.63
18.16
15.15
11.76
8.14
4.41
0.60
-3.22
-7.00
-10.66
-14.15
-17.41
-20.44
-23.29
-26.08
-28.95
-32.07
-35.61
-39.66
-44.08
-48.50
-52.32
-54.86
-55.56
-54.15
-50.71
-45.60
-39.28
-32.18
-24.65
-16.93
-9.27
-1.93
4.83
10.84
15.98
20.23
23.66
26.35
28.40
29.89
30.89
31.44
31.55
31.26
30.69
30.00
29.30
28.68
28.07
27.32
26.31
24.99
23.40
21.64
19.78
17.81
15.65
13.25
10.60
7.72
4.69
1.51
-1.80
-5.23
-8.68
-12.05
-15.23
-18.24
-21.26
-24.55
-28.37
-32.78
-37.58
-42.29
-46.24
-48.78
-49.47
-48.10
-44.78
-39.86
-33.79
-27.08
-20.15
-13.35
-6.86
-0.74
5.04
10.53
15.69
20.39
24.38
27.50
29.67
30.97
31.62
31.86
31.85
31.68
31.34
30.85
30.28
29.69
29.12
28.52
27.76
26.70
25.22
23.30
21.03
18.52
15.92
13.31
10.71
8.11
5.44
2.67
-0.21
-3.15
-6.13
-9.15
-12.29
-15.68
-19.51
-23.83
-28.52
-33.24
-37.42
-40.42
-41.72
-41.00
-38.33
-34.05
-28.71
-22.88
-16.97
-11.19
-5.54
0.02
5.47
10.63
15.16
18.74
21.17
22.47
22.90
22.83
22.52
22.20
21.88
21.51
21.03
20.37
19.52
18.45
17.15
15.65
13.98
12.18
10.33
8.41
6.44
4.40
2.25
-0.03
-2.47
-5.08
-7.87
-10.82
-13.90
-17.09
-20.41
-23.92
-27.74
-31.93
-36.46
-41.11
-45.43
-48.84
-50.78
-50.85
-48.94
-45.24
-40.20
-34.29
-27.92
-21.36
-14.71
-8.03
-1.43
4.97
10.99
16.45
21.20
25.15
28.25
30.50
32.00
32.86
33.26
33.31
33.11
32.70
32.08
31.25
30.19
28.84
27.19
25.22
23.01
20.64
18.23
15.83
13.41
10.89
8.16
5.12
1.80
-1.74
-5.37
-8.94
-12.36
-15.65
-18.90
-22.26
-25.91
-29.99
-34.56
-39.55
-44.71
-49.62
-53.70
-56.31
-56.92
-55.23
-51.33
-45.62
-38.74
-31.25
-23.56
-15.87
-8.20
-0.59
6.87
13.97
20.48
26.19
30.98
34.85
37.82
39.92
41.19
41.70
41.57
41.03
40.28
39.55
38.90
38.24
37.39
36.14
34.43
32.27
29.80
27.17
24.44
21.63
18.70
15.62
12.42
9.13
5.82
2.50
-0.87
-4.31
-7.82
-11.37
-14.98
-18.70
-22.67
-27.02
-31.76
-36.77
-41.67
-45.99
-49.19
-50.85
-50.77
-48.94
-45.53
-40.80
-35.03
-28.46
-21.32
-13.84
-6.30
1.03
7.92
14.18
19.71
24.40
28.16
30.88
32.56
33.29
33.32
33.00
32.65
32.46
32.45
32.47
32.33
31.85
30.94
29.56
27.81
25.84
23.85
22.01
20.40
18.97
17.53
15.81
13.53
10.59
7.03
3.10
-0.86
-4.58
-7.91
-10.83
-13.49
-16.11
-18.94
-22.22
-26.05
-30.38
-34.91
-39.10
-42.28
-43.88
-43.55
-41.28
-37.35
-32.20
-26.33
-20.15
-13.96
-7.97
-2.28
3.05
8.06
12.71
16.97
20.72
23.80
26.06
27.45
27.98
27.81
27.16
26.29
25.48
24.92
24.69
24.75
24.95
25.11
25.01
24.45
23.26
21.41
19.02
16.33
13.66
11.27
9.21
7.32
5.34
3.05
0.35
-2.70
-5.97
-9.38
-12.89
-16.50
-20.18
-23.89
-27.59
-31.32
-35.24
-39.48
-44.08
-48.82
-53.22
-56.70
-58.71
-58.91
-57.19
-53.67
-48.58
-42.18
-34.78
-26.68
-18.26
-9.86
-1.79
5.74
12.60
18.70
24.01
28.46
31.96
34.53
36.26
37.39
38.15
38.73
39.16
39.31
39.06
38.35
37.25
35.97
34.66
33.38
32.04
30.51
28.65
26.45
23.92
21.16
18.25
15.24
12.19
9.08
5.88
2.54
-0.99
-4.68
-8.41
-12.03
-15.42
-18.56
-21.59
-24.73
-28.19
-32.08
-36.39
-40.90
-45.31
-49.23
-52.23
-53.91
-53.95
-52.19
-48.64
-43.48
-37.05
-29.77
-22.07
-14.35
-6.86
0.26
6.99
13.29
19.05
24.09
28.23
31.37
33.52
34.86
35.61
35.91
35.82
35.35
34.52
33.42
32.24
31.14
30.20
29.34
28.43
27.29
25.83
24.11
22.28
20.48
18.75
17.02
15.13
12.85
10.10
6.95
3.54
0.11
-3.18
-6.26
-9.16
-11.91
-14.61
-17.35
-20.29
-23.63
-27.57
-32.10
-36.95
-41.55
-45.10
-46.86
-46.38
-43.59
-38.87
-32.84
-26.17
-19.40
-12.90
-6.83
-1.27
3.73
8.11
11.86
14.98
17.53
19.54
20.99
21.85
22.09
21.78
21.12
20.39
19.87
19.72
19.93
20.33
20.64
20.58
19.96
18.69
16.87
14.64
12.25
9.85
7.46
4.99
2.23
-0.97
-4.66
-8.67
-12.70
-16.46
-19.80
-22.81
-25.79
-29.08
-32.96
-37.47
-42.42
-47.35
-51.70
-54.89
-56.48
-56.24
-54.16
-50.37
-45.07
-38.44
-30.64
-21.81
-12.16
-1.96
8.47
18.81
28.86
38.44
47.53
56.31
65.37
75.81
89.10
106.60
128.86
155.14
183.35
210.76
235.02
255.11
271.47
285.58
298.92
312.11
324.70
335.30
342.11
343.27
337.09
322.08
297.19
262.25
218.45
168.41
115.84
64.74
18.26
-21.82
-55.21
-82.76
-105.96
-126.37
-145.22
-163.27
-180.75
-197.67
-213.69
-228.15
-240.12
-248.63
-253.10
-253.38
-249.88
-243.30
-234.75
-225.07
-214.55
-202.92
-189.71
-174.75
-158.44
-141.79
-126.20
-114.16
-107.41
-106.15
-108.96
-113.53
-117.73
-120.23
-120.59
-119.07
-118.86
-122.74
-131.81
-144.75
-158.52
-169.83
-176.22
-176.89
-173.01
-171.61
-179.42
-199.91
-231.39
-268.26
-304.08
-334.38
-357.52
-374.65
-393.41
-419.67
-454.36
-493.09
-529.24
-558.32
-579.64
-594.82
-577.12
-511.94
-401.12
-265.90
-135.11
-30.49
39.15
76.28
89.64
95.34
100.67
108.27
117.86
128.48
139.77
152.57
163.83
172.93
181.07
185.76
185.06
178.74
169.04
159.77
154.28
154.17
160.00
171.17
183.76
194.52
202.34
208.33
214.60
222.34
231.13
239.95
247.61
251.94
252.06
248.55
243.03
237.07
231.25
225.11
218.17
210.49
202.41
195.25
191.10
192.46
201.50
218.98
243.06
268.89
288.88
294.58
279.86
243.69
191.22
132.32
78.09
37.05
12.85
4.14
6.69
15.99
29.28
46.00
66.79
91.96
120.25
148.72
173.50
191.33
200.74
202.53
198.83
191.65
181.61
167.69
148.39
123.02
92.73
60.23
28.32
-1.58
-29.95
-58.33
-87.63
-116.85
-143.22
-163.50
-175.77
-180.53
-180.46
-179.05
-179.11
-181.88
-187.08
-193.58
-200.02
-205.05
-207.27
-205.20
-197.43
-183.22
-163.06
-138.82
-113.37
-89.82
-70.82
-57.94
-51.36
-49.98
-51.73
-54.04
-54.63
-52.07
-46.22
-38.28
-30.46
-25.30
-25.16
-31.57
-44.89
-64.02
-86.19
-107.09
-121.50
-124.54
-113.38
-88.69
-54.93
-19.04
12.24
35.02
49.72
60.27
71.68
87.12
106.37
126.12
141.96
150.62
151.29
145.48
135.85
124.93
114.53
105.85
99.92
97.82
100.40
107.78
119.01
132.10
144.58
154.19
159.52
160.14
156.53
149.66
140.55
130.01
118.56
106.41
93.66
80.39
66.75
52.95
39.29
25.99
13.21
0.96
-10.77
-22.00
-32.62
-42.48
-51.42
-59.35
-66.37
-72.70
-78.62
-84.36
-90.06
-95.81
-101.79
-108.26
-115.68
-124.54
-135.23
-147.73
-161.38
-174.69
-185.62
-192.09
-192.75
-187.49
-177.56
-165.04
-152.00
-139.65
-127.97
-115.80
-101.23
-82.13
-56.62
-23.61
16.73
62.65
110.82
157.04
197.34
229.12
251.83
266.74
276.07
281.91
285.52
287.18
286.59
283.26
276.67
266.21
251.28
231.42
206.69
177.91
146.57
114.39
82.86
52.98
25.35
0.49
-21.10
-39.03
-53.39
-64.73
-73.76
-80.74
-85.05
-85.22
-79.78
-68.14
-51.27
-31.54
-11.70
6.24
21.83
35.75
48.68
60.00
67.42
67.89
59.37
42.38
20.32
-1.80
-19.58
-31.09
-37.40
-41.47
-46.30
-53.40
-62.45
-72.05
-80.96
-88.81
-95.98
-102.89
-109.17
-113.61
-114.47
-110.38
-101.20
-88.34
-74.56
-63.22
-57.16
-57.85
-64.86
-75.99
-88.06
-97.91
-103.23
-103.08
-97.84
-88.80
-77.67
-66.07
-55.12
-45.38
-36.85
-29.26
-22.30
-15.89
-10.31
-6.17
-4.27
-5.43
-10.39
-19.73
-33.62
-51.48
-71.78
-91.93
-108.87
-119.82
-123.23
-119.17
-109.06
-94.91
-78.56
-61.28
-43.85
-27.03
-11.86
0.23
7.88
10.27
7.74
1.99
-4.15
-7.43
-5.12
4.20
20.39
42.10
67.64
95.75
125.83
157.63
190.41
222.43
250.85
272.44
284.50
285.59
275.76
256.38
229.63
198.18
164.74
131.79
101.25
74.20
50.71
29.96
10.51
-9.12
-29.87
-51.68
-73.33
-92.75
-107.70
-116.54
-118.85
-115.55
-108.63
-100.48
-93.26
-88.44
-86.52
-87.12
-89.20
-91.20
-91.19
-86.97
-76.24
-56.99
-28.23
9.20
52.26
96.03
134.82
163.55
179.04
180.37
168.64
146.43
117.47
86.63
59.89
43.61
42.97
60.07
92.62
134.13
175.63
208.40
226.39
227.45
213.12
187.28
154.59
119.27
84.35
51.72
22.35
-3.45
-25.78
-44.99
-61.60
-76.17
-89.05
-100.17
-108.92
-114.31
-115.37
-111.76
-104.03
-93.69
-82.67
-72.77
-65.08
-59.83
-56.57
-54.61
-53.35
-52.51
-52.10
-52.22
-52.97
-54.26
-55.84
-57.32
-58.29
-58.50
-57.92
-56.82
-55.58
-54.66
-54.32
-54.70
-55.75
-57.38
-59.48
-62.07
-65.15
-68.78
-72.96
-77.62
-82.61
-87.64
-92.25
-95.74
-97.32
-96.17
-91.70
-83.74
-72.54
-58.79
-43.42
-27.46
-11.90
2.45
14.99
25.32
33.29
38.93
42.37
43.81
43.53
41.89
39.34
36.38
33.44
30.76
28.27
25.69
22.63
18.83
14.19
8.89
3.22
-2.50
-8.13
-13.73
-19.56
-25.94
-33.10
-41.15
-50.10
-60.11
-71.49
-84.74
-100.32
-118.34
-138.34
-159.32
-180.01
-199.27
-216.40
-231.25
-244.03
-255.09
-264.58
-272.41
-278.26
-281.87
-283.41
-283.64
-283.78
-284.84
-287.17
-289.99
-291.67
-290.56
-285.81
-277.82
-267.64
-255.97
-242.48
-226.38
-207.85
-189.27
-174.79
-167.94
-168.81
-172.46
-170.17
-153.14
-116.71
-62.59
2.02
67.96
128.04
179.27
222.56
260.44
294.98
326.92
356.31
383.85
411.13
439.87
470.02
498.57
519.67
526.59
514.75
483.93
438.57
385.71
332.10
281.85
235.97
193.77
154.73
119.63
90.26
68.20
53.63
45.23
41.01
39.39
39.73
42.13
46.74
53.13
60.24
66.78
71.80
74.99
76.55
76.99
76.83
76.45
75.93
75.13
73.68
71.11
67.06
61.40
54.39
46.53
38.47
30.63
23.18
15.99
8.76
1.25
-6.51
-14.13
-20.92
-25.97
-28.49
-27.94
-24.34
-18.22
-10.55
-2.42
5.26
12.01
17.73
22.60
26.88
30.74
34.18
37.15
39.59
41.45
42.69
43.38
43.65
43.78
44.21
45.36
47.55
50.84
55.01
59.65
64.29
68.60
72.41
75.81
79.07
82.59
86.75
91.82
97.75
104.12
110.14
114.88
117.59
117.94
116.06
112.32
106.88
99.35
88.67
73.58
53.24
27.86
-1.12
-31.36
-60.37
-86.21
-107.92
-125.47
-139.32
-150.11
-158.26
-163.88
-166.59
-165.55
-159.74
-148.38
-131.56
-110.50
-87.42
-64.96
-45.28
-29.61
-18.06
-10.00
-4.46
-0.48
2.86
6.50
11.41
18.43
28.17
40.86
56.19
73.16
89.88
103.68
111.65
111.67
103.40
88.63
70.74
53.22
38.24
25.87
14.54
2.16
-12.62
-29.87
-48.65
-67.48
-84.53
-97.29
-102.52
-96.95
-78.92
-50.16
-16.50
13.41
31.15
31.83
16.01
-10.70
-40.16
-64.92
-80.47
-85.76
-82.23
-72.23
-57.98
-41.21
-23.52
-6.66
7.38
16.82
20.62
18.89
13.01
5.18
-2.38
-8.26
-12.48
-16.63
-23.30
-35.07
-53.44
-78.09
-106.95
-136.94
-165.08
-189.38
-209.08
-224.10
-234.12
-237.89
-233.23
-217.95
-191.03
-153.63
-109.28
-62.99
-19.99
15.60
41.56
57.55
64.68
64.82
60.12
52.74
44.60
37.17
31.26
26.80
22.95
18.40
12.01
3.28
-7.36
-18.57
-28.61
-35.92
-39.66
-39.95
-37.65
-33.83
-29.23
-23.97
-17.69
-10.05
-1.20
8.08
16.64
23.46
28.12
30.88
32.47
33.67
34.90
36.14
37.06
37.24
36.36
34.36
31.35
27.69
23.87
20.40
17.63
15.55
13.73
11.39
7.77
2.42
-4.33
-11.39
-17.06
-19.53
-17.56
-10.97
-0.80
10.90
21.65
29.30
32.60
31.41
26.62
19.55
11.49
3.28
-4.79
-12.75
-20.60
-28.05
-34.45
-38.96
-40.91
-40.08
-36.85
-31.98
-26.34
-20.53
-14.74
-8.89
-2.83
3.35
9.31
14.57
18.77
21.88
24.22
26.28
28.49
30.93
33.37
35.38
36.62
37.04
36.88
36.55
36.37
36.39
36.36
35.84
34.40
31.78
28.00
23.33
18.21
13.08
8.23
3.73
-0.52
-4.77
-9.20
-13.82
-18.43
-22.74
-26.48
-29.66
-32.52
-35.54
-39.23
-43.90
-49.50
-55.51
-61.06
-65.05
-66.50
-64.75
-59.67
-51.67
-41.55
-30.26
-18.72
-7.63
2.55
11.58
19.40
26.03
31.57
36.08
39.59
42.10
43.58
44.06
43.68
42.63
41.08
39.20
37.09
34.82
32.54
30.40
28.51
26.89
25.44
23.93
22.10
19.69
16.56
12.67
8.13
3.10
-2.18
-7.49
-12.68
-17.64
-22.35
-26.87
-31.32
-35.92
-40.89
-46.45
-52.52
-58.69
-64.06
-67.49
-67.90
-64.63
-57.74
-47.89
-36.19
-23.82
-11.80
-0.79
8.86
17.04
23.79
29.21
33.43
36.60
38.87
40.33
41.06
41.05
40.31
38.89
36.97
34.83
32.82
31.22
30.07
29.23
28.34
27.11
25.38
23.14
20.50
17.47
14.03
10.09
5.63
0.80
-4.16
-9.04
-13.69
-18.12
-22.44
-26.72
-31.07
-35.62
-40.59
-46.15
-52.34
-58.77
-64.61
-68.73
-70.00
-67.70
-61.76
-52.76
-41.69
-29.70
-17.78
-6.63
3.38
12.12
19.63
25.95
31.18
35.35
38.46
40.55
41.66
41.91
41.47
40.54
39.32
37.97
36.60
35.24
33.87
32.37
30.63
28.54
26.06
23.27
20.28
17.20
14.00
10.58
6.75
2.40
-2.46
-7.68
-12.99
-18.20
-23.18
-27.87
-32.32
-36.62
-40.92
-45.43
-50.38
-55.83
-61.48
-66.60
-70.17
-71.06
-68.49
-62.23
-52.74
-41.02
-28.29
-15.75
-4.24
5.79
14.26
21.35
27.28
32.22
36.22
39.25
41.25
42.21
42.21
41.42
40.04
38.27
36.32
34.34
32.44
30.61
28.81
26.95
24.99
22.91
20.73
18.40
15.82
12.82
9.28
5.22
0.77
-3.82
-8.35
-12.75
-17.07
-21.43
-25.95
-30.72
-35.89
-41.65
-48.12
-55.15
-62.11
-67.87
-71.09
-70.61
-65.90
-57.35
-46.01
-33.34
-20.62
-8.75
1.86
11.09
18.97
25.47
30.55
34.22
36.60
37.94
38.56
38.83
38.99
39.19
39.37
39.40
39.09
38.32
37.06
35.41
33.46
31.29
28.88
26.11
22.84
18.97
14.48
9.45
4.08
-1.47
-6.97
-12.27
-17.27
-21.95
-26.40
-30.84
-35.54
-40.85
-47.05
-54.23
-62.16
-70.10
-76.86
-81.07
-81.52
-77.61
-69.49
-58.04
-44.60
-30.55
-16.98
-4.55
6.44
15.99
24.26
31.44
37.70
43.12
47.62
50.98
52.98
53.51
52.75
51.08
49.00
46.93
45.06
43.37
41.68
39.79
37.60
35.08
32.29
29.22
25.87
22.13
17.96
13.34
8.33
3.00
-2.52
-8.09
-13.59
-18.90
-23.99
-28.91
-33.88
-39.17
-45.14
-51.93
-59.42
-67.00
-73.64
-78.09
-79.19
-76.25
-69.20
-58.69
-45.83
-31.84
-17.82
-4.54
7.58
18.34
27.68
35.63
42.27
47.69
51.96
55.11
57.09
57.87
57.48
56.12
54.09
51.74
49.37
47.17
45.24
43.54
41.99
40.43
38.61
36.29
33.30
29.64
25.53
21.31
17.27
13.51
9.84
5.88
1.29
-4.05
-9.97
-16.07
-21.88
-27.14
-31.85
-36.35
-41.15
-46.72
-53.28
-60.66
-68.17
-74.73
-79.07
-80.05
-77.02
-69.92
-59.41
-46.59
-32.73
-18.96
-6.11
5.37
15.35
23.89
31.10
37.10
41.96
45.70
48.30
49.76
50.10
49.48
48.15
46.46
44.78
43.40
42.42
41.76
41.16
40.29
38.88
36.79
34.04
30.76
27.09
23.13
18.92
14.44
9.66
4.59
-0.78
-6.37
-12.11
-17.89
-23.57
-29.08
-34.44
-39.81
-45.48
-51.76
-58.76
-66.21
-73.37
-79.06
-81.97
-81.06
-75.86
-66.70
-54.56
-40.75
-26.56
-12.93
-0.40
10.82
20.69
29.25
36.50
42.43
47.09
50.54
52.86
54.19
54.65
54.41
53.62
52.46
51.03
49.43
47.78
46.19
44.79
43.61
42.50
41.14
39.14
36.23
32.34
27.68
22.60
17.52
12.71
8.29
4.17
0.13
-4.15
-8.93
-14.37
-20.36
-26.55
-32.43
-37.58
-41.89
-45.63
-49.36
-53.73
-59.20
-65.90
-73.47
-81.16
-87.84
-92.19
-92.97
-89.38
-81.32
-69.49
-55.19
-39.93
-24.99
-11.18
1.23
12.32
22.31
31.41
39.73
47.21
53.67
58.87
62.62
64.84
65.65
65.34
64.28
62.77
61.06
59.27
57.54
55.93
54.47
53.06
51.46
49.45
46.86
43.70
40.09
36.21
32.13
27.84
23.28
18.41
13.32
8.19
3.19
-1.61
-6.25
-10.91
-15.77
-20.89
-26.21
-31.55
-36.66
-41.38
-45.72
-49.87
-54.23
-59.32
-65.50
-72.84
-80.85
-88.46
-94.20
-96.56
-94.48
-87.68
-76.73
-62.87
-47.64
-32.37
-17.98
-4.94
6.69
17.02
26.18
34.29
41.43
47.61
52.77
56.83
59.63
61.06
61.16
60.12
58.31
56.17
54.06
52.22
50.69
49.42
48.31
47.28
46.24
45.08
43.60
41.54
38.70
35.07
30.82
26.32
21.93
17.90
14.24
10.77
7.18
3.21
-1.30
-6.34
-11.73
-17.23
-22.55
-27.43
-31.73
-35.50
-39.01
-42.73
-47.17
-52.68
-59.26
-66.38
-73.09
-78.10
-80.15
-78.30
-72.23
-62.32
-49.58
-35.34
-20.99
-7.62
4.12
14.06
22.31
29.11
34.63
38.93
42.05
44.03
45.07
45.43
45.36
44.98
44.30
43.27
41.91
40.38
38.91
37.70
36.84
36.18
35.40
34.14
32.11
29.22
25.61
21.56
17.39
13.27
9.14
4.78
-0.12
-5.70
-11.86
-18.23
-24.33
-29.75
-34.34
-38.21
-41.77
-45.56
-50.12
-55.80
-62.56
-69.83
-76.55
-81.35
-82.90
-80.35
-73.61
-63.35
-50.77
-37.26
-24.00
-11.75
-0.81
8.87
17.46
25.11
31.87
37.66
42.41
46.03
48.57
50.10
50.79
50.80
50.24
49.23
47.83
46.18
44.47
42.90
41.65
40.70
39.85
38.72
36.90
34.14
30.40
25.96
21.20
16.49
12.06
7.90
3.83
-0.40
-4.96
-9.92
-15.17
-20.51
-25.71
-30.58
-35.09
-39.34
-43.57
-48.12
-53.34
-59.48
-66.56
-74.25
-81.79
-88.05
-91.73
-91.70
-87.31
-78.67
-66.62
-52.46
-37.60
-23.20
-10.00
1.74
12.00
20.93
28.68
35.37
41.10
45.94
49.83
52.71
54.49
55.13
54.74
53.57
51.89
49.94
47.92
45.89
43.92
42.06
40.35
38.77
37.19
35.38
33.09
30.23
26.83
23.09
19.21
15.32
11.38
7.24
2.69
-2.37
-7.88
-13.59
-19.22
-24.50
-29.34
-33.78
-38.04
-42.35
-47.03
-52.33
-58.40
-65.21
-72.39
-79.19
-84.48
-87.02
-85.76
-80.22
-70.68
-58.12
-43.91
-29.40
-15.60
-3.03
8.18
18.07
26.75
34.21
40.38
45.19
48.62
50.75
51.71
51.71
50.97
49.72
48.18
46.58
45.07
43.75
42.60
41.46
40.13
38.38
36.11
33.28
29.99
26.39
22.57
18.57
14.35
9.81
4.89
-0.46
-6.22
-12.28
-18.42
-24.42
-30.16
-35.68
-41.27
-47.29
-53.99
-61.23
-68.29
-74.03
-77.15
-76.64
-72.04
-63.66
-52.37
-39.37
-25.92
-13.00
-1.30
8.87
17.47
24.64
30.58
35.45
39.39
42.43
44.58
45.86
46.36
46.17
45.44
44.30
42.92
41.50
40.18
39.07
38.09
37.04
35.64
33.58
30.73
27.10
22.94
18.50
14.04
9.66
5.34
0.97
-3.55
-8.29
-13.27
-18.41
-23.61
-28.77
-33.83
-38.80
-43.81
-49.08
-54.89
-61.41
-68.55
-75.76
-82.02
-86.03
-86.57
-82.86
-74.94
-63.57
-50.05
-35.83
-22.07
-9.46
1.77
11.68
20.45
28.22
35.11
41.14
46.29
50.52
53.75
55.88
56.88
56.81
55.81
54.16
52.21
50.30
48.71
47.53
46.68
45.89
44.80
43.07
40.49
37.04
32.92
28.44
23.91
19.55
15.35
11.17
6.75
1.92
-3.39
-9.05
-14.85
-20.57
-26.05
-31.31
-36.43
-41.65
-47.24
-53.45
-60.42
-67.96
-75.42
-81.75
-85.62
-85.85
-81.80
-73.56
-61.95
-48.24
-33.83
-19.84
-7.03
4.27
14.05
22.51
29.92
36.52
42.40
47.49
51.63
54.61
56.34
56.90
56.45
55.22
53.42
51.24
48.88
46.64
44.77
43.49
42.72
42.12
41.12
39.19
36.06
31.85
27.01
22.11
17.58
13.58
9.88
6.14
1.98
-2.73
-7.89
-13.18
-18.26
-22.91
-27.11
-31.09
-35.17
-39.72
-45.01
-51.21
-58.21
-65.55
-72.30
-77.19
-78.88
-76.34
-69.29
-58.37
-44.96
-30.74
-17.21
-5.22
4.98
13.63
21.10
27.69
33.46
38.34
42.18
44.89
46.47
47.03
46.74
45.82
44.50
42.98
41.46
40.06
38.88
37.90
37.05
36.09
34.74
32.74
29.96
26.45
22.41
18.07
13.59
8.95
4.07
-1.15
-6.71
-12.48
-18.27
-23.85
-29.10
-34.09
-39.04
-44.28
-50.20
-56.96
-64.30
-71.41
-77.02
-79.73
-78.48
-72.95
-63.66
-51.78
-38.74
-25.74
-13.58
-2.53
7.42
16.38
24.40
31.42
37.27
41.85
45.15
47.24
48.30
48.55
48.19
47.36
46.19
44.76
43.14
41.44
39.76
38.15
36.65
35.19
33.58
31.53
28.77
25.14
20.75
15.98
11.35
7.22
3.68
0.43
-3.04
-7.15
-12.03
-17.40
-22.78
-27.72
-32.04
-35.89
-39.65
-43.76
-48.61
-54.44
-61.19
-68.49
-75.57
-81.30
-84.42
-83.87
-79.13
-70.39
-58.56
-44.93
-30.85
-17.40
-5.24
5.39
14.54
22.45
29.35
35.44
40.80
45.41
49.13
51.82
53.37
53.81
53.29
52.07
50.41
48.55
46.69
44.96
43.48
42.27
41.28
40.28
38.97
37.00
34.20
30.60
26.42
21.98
17.56
13.23
8.90
4.40
-0.44
-5.68
-11.25
-16.95
-22.51
-27.69
-32.34
-36.52
-40.47
-44.64
-49.49
-55.33
-62.16
-69.50
-76.41
-81.63
-83.89
-82.23
-76.33
-66.60
-54.10
-40.21
-26.30
-13.42
-2.15
7.39
15.43
22.23
28.14
33.29
37.76
41.45
44.29
46.20
47.18
47.33
46.82
45.83
44.55
43.17
41.87
40.79
40.01
39.50
39.06
38.38
37.09
34.93
31.84
28.00
23.74
19.43
15.28
11.26
7.17
2.78
-2.06
-7.26
-12.54
-17.54
-22.00
-25.86
-29.29
-32.65
-36.39
-40.89
-46.36
-52.65
-59.19
-65.02
-68.94
-69.79
-66.79
-59.80
-49.43
-36.84
-23.45
-10.59
0.84
10.47
18.37
24.84
30.17
34.48
37.70
39.73
40.58
40.44
39.72
38.88
38.25
37.96
37.89
37.79
37.41
36.65
35.57
34.35
33.08
31.78
30.33
28.56
26.34
23.64
20.42
16.62
12.08
6.58
0.04
-7.43
-15.41
-23.35
-30.71
-37.15
-42.67
-47.57
-52.36
-57.48
-63.09
-68.92
-74.19
-77.80
-78.59
-75.77
-69.18
-59.34
-47.28
-34.25
-21.38
-9.47
1.03
9.97
17.36
23.25
27.78
31.12
33.49
35.12
36.21
36.87
37.08
36.79
35.98
34.71
33.24
31.91
31.06
30.84
31.17
31.68
31.86
31.27
29.69
27.18
24.02
20.53
16.93
13.18
9.07
4.34
-1.13
-7.25
-13.68
-19.98
-25.76
-30.87
-35.43
-39.79
-44.41
-49.73
-55.99
-63.09
-70.48
-77.14
-81.73
-82.95
-79.92
-72.51
-61.49
-48.22
-34.24
-20.82
-8.66
2.04
11.46
19.81
27.24
33.78
39.43
44.17
47.98
50.78
52.46
52.91
52.14
50.35
47.95
45.49
43.44
42.12
41.63
41.84
42.48
43.23
43.75
43.71
42.87
41.10
38.45
35.12
31.38
27.48
23.43
19.05
14.04
8.09
1.13
-6.64
-14.74
-22.62
-29.78
-35.95
-41.16
-45.70
-50.03
-54.63
-59.84
-65.67
-71.71
-77.09
-80.64
-81.15
-77.76
-70.28
-59.30
-46.06
-32.08
-18.80
-7.16
2.48
10.25
16.59
21.95
26.67
30.85
34.44
37.31
39.34
40.52
40.89
40.62
39.86
38.81
37.66
36.61
35.81
35.27
34.88
34.30
33.22
31.36
28.68
25.34
21.61
17.69
13.68
9.49
4.98
0.09
-5.16
-10.58
-15.94
-21.04
-25.77
-30.19
-34.49
-39.03
-44.18
-50.19
-56.94
-63.82
-69.70
-73.27
-73.32
-69.28
-61.39
-50.63
-38.42
-26.12
-14.68
-4.52
4.38
12.19
18.98
24.56
28.64
30.93
31.45
30.64
29.21
27.91
27.15
26.80
26.20
24.55
21.36
16.87
12.03
8.06
5.77
5.06
4.86
3.68
0.36
-5.34
-12.68
-20.35
-27.09
-31.94
-34.08
-32.56
-26.47
-15.60
-1.15
14.08
26.58
33.51
33.80
28.60
20.49
12.36
6.09
1.98
-1.14
-5.16
-11.83
-22.12
-35.87
-52.00
-68.96
-85.15
-99.31
-109.97
-114.88
-110.84
-94.80
-65.98
-28.10
10.05
36.95
43.15
26.46
-5.86
-39.45
-59.07
-55.40
-28.79
12.02
54.96
90.30
113.78
125.53
126.80
117.24
95.31
61.26
20.11
-18.50
-44.33
-51.85
-43.02
-25.37
-6.76
9.35
24.91
43.88
67.24
90.18
103.74
100.08
77.71
43.16
7.85
-17.73
-29.02
-28.40
-22.48
-17.68
-16.74
-18.38
-19.36
-17.43
-13.10
-9.50
-10.01
-15.94
-25.20
-33.11
-34.87
-27.97
-13.59
4.10
20.03
30.68
35.20
35.21
33.40
32.05
32.15
33.38
34.68
35.07
34.16
32.22
30.02
28.30
27.51
27.55
27.89
27.77
26.62
24.29
21.08
17.58
14.28
11.36
8.59
5.50
1.67
-3.06
-8.43
-13.97
-19.24
-24.02
-28.41
-32.76
-37.45
-42.79
-48.88
-55.52
-62.16
-67.93
-71.74
-72.59
-69.80
-63.37
-53.96
-42.71
-30.86
-19.40
-8.89
0.61
9.29
17.41
25.18
32.61
39.58
45.83
51.08
55.06
57.62
58.76
58.60
57.34
55.21
52.45
49.34
46.16
43.21
40.68
38.56
36.73
34.93
33.01
30.88
28.61
26.24
23.76
21.08
18.04
14.57
10.69
6.50
2.09
-2.45
-7.10
-11.87
-16.80
-21.99
-27.58
-33.76
-40.56
-47.66
-54.27
-59.17
-61.10
-59.11
-52.95
-43.18
-31.02
-18.03
-5.64
5.13
13.70
19.91
23.86
25.84
26.42
26.43
26.92
28.84
32.65
38.11
44.24
49.73
53.43
54.77
53.94
51.70
48.96
46.46
44.52
43.05
41.71
40.06
37.73
34.47
30.31
25.46
20.29
15.22
10.57
6.51
2.90
-0.72
-5.11
-11.21
-19.78
-31.10
-44.65
-59.14
-72.76
-83.77
-90.98
-94.04
-93.44
-90.18
-85.44
-80.24
-75.33
-71.13
-67.83
-65.48
-64.03
-63.47
-63.78
-64.98
-67.01
-69.66
-72.53
-75.08
-76.70
-76.83
-75.05
-71.09
-64.85
-56.42
-46.06
-34.26
-21.64
-8.91
3.28
14.44
24.30
32.79
40.00
46.03
50.89
54.44
56.38
56.30
53.81
48.69
40.99
31.17
20.13
9.20
-0.08
-6.22
-8.19
-5.67
0.82
10.09
20.62
31.07
40.53
48.58
55.27
60.75
65.18
68.54
70.71
71.51
70.89
68.95
66.09
62.85
59.84
57.43
55.67
54.31
52.94
51.23
48.98
46.05
42.13
36.69
29.23
19.68
8.69
-2.57
-12.98
-22.12
-30.49
-39.04
-48.45
-58.55
-68.42
-76.90
-83.31
-87.62
-90.07
-90.66
-88.81
-83.64
-74.66
-62.30
-47.90
-33.20
-19.54
-7.47
3.22
13.05
22.37
31.11
38.87
45.10
49.43
51.76
52.33
51.62
50.25
48.78
47.62
46.92
46.66
46.64
46.67
46.52
46.04
45.08
43.55
41.41
38.66
35.37
31.59
27.46
23.09
18.60
14.13
9.82
5.71
1.78
-2.12
-6.22
-10.72
-15.73
-21.18
-26.86
-32.48
-37.77
-42.64
-47.17
-51.61
-56.38
-61.90
-68.47
-76.09
-84.27
-92.01
-97.93
-100.58
-98.92
-92.59
-82.11
-68.64
-53.59
-38.24
-23.44
-9.61
3.05
14.48
24.66
33.58
41.34
48.04
53.78
58.50
62.08
64.38
65.38
65.21
64.20
62.67
60.98
59.32
57.76
56.28
54.80
53.17
51.27
49.06
46.54
43.75
40.75
37.52
34.01
30.18
26.04
21.71
17.31
12.93
8.56
4.13
-0.44
-5.16
-10.03
-15.00
-20.03
-25.07
-30.08
-34.99
-39.78
-44.55
-49.56
-55.14
-61.54
-68.72
-76.11
-82.61
-86.86
-87.54
-83.87
-75.83
-64.26
-50.55
-36.23
-22.56
-10.22
0.65
10.28
18.97
26.89
34.03
40.26
45.48
49.63
52.75
54.88
56.03
56.17
55.35
53.79
51.79
49.81
48.20
47.16
46.59
46.23
45.68
44.59
42.84
40.42
37.48
34.18
30.66
26.98
23.25
19.49
15.74
11.97
8.06
3.85
-0.78
-5.83
-11.10
-16.32
-21.22
-25.67
-29.65
-33.33
-36.92
-40.72
-45.04
-50.14
-56.11
-62.74
-69.32
-74.72
-77.65
-77.00
-72.22
-63.58
-52.06
-38.97
-25.68
-13.24
-2.21
7.20
15.08
21.59
26.88
31.08
34.31
36.67
38.30
39.36
39.95
40.13
39.89
39.19
38.07
36.68
35.28
34.17
33.48
33.14
32.89
32.36
31.29
29.59
27.33
24.67
21.76
18.68
15.44
12.14
8.90
5.84
2.99
0.28
-2.53
-5.65
-9.20
-13.14
-17.27
-21.32
-25.09
-28.52
-31.69
-34.82
-38.15
-41.90
-46.25
-51.17
-56.37
-61.15
-64.49
-65.27
-62.64
-56.38
-47.08
-35.92
-24.31
-13.38
-3.75
4.43
11.31
17.02
21.64
25.15
27.67
29.44
30.75
31.84
32.72
33.27
33.30
32.72
31.62
30.26
28.92
27.81
26.99
26.40
25.86
25.20
24.29
23.07
21.50
19.58
17.33
14.78
11.98
9.01
5.99
2.98
-0.05
-3.18
-6.52
-10.11
-13.86
-17.58
-21.09
-24.30
-27.24
-30.04
-32.86
-35.87
-39.21
-43.02
-47.26
-51.66
-55.55
-57.99
-58.00
-54.88
-48.54
-39.57
-29.04
-18.17
-7.97
0.92
8.26
14.11
18.63
22.01
24.45
26.09
27.10
27.60
27.69
27.43
26.86
26.01
24.95
23.78
22.67
21.74
21.02
20.41
19.77
18.95
17.90
16.65
15.25
13.69
11.94
9.92
7.65
5.25
2.84
0.44
-2.04
-4.85
-8.14
-11.87
-15.77
-19.42
-22.47
-24.85
-26.81
-28.80
-31.32
-34.73
-39.04
-43.97
-48.85
-52.79
-54.90
-54.41
-50.99
-44.78
-36.42
-26.81
-16.90
-7.53
0.76
7.69
13.22
17.50
20.74
23.20
25.06
26.42
27.27
27.56
27.24
26.35
24.99
23.32
21.51
19.78
18.34
17.29
16.62
16.17
15.64
14.75
13.36
11.54
9.50
7.50
5.67
3.96
2.15
0.01
-2.66
-5.88
-9.49
-13.19
-16.68
-19.76
-22.43
-24.91
-27.55
-30.67
-34.44
-38.80
-43.34
-47.43
-50.25
-51.01
-49.13
-44.44
-37.27
-28.42
-18.92
-9.78
-1.68
5.12
10.70
15.26
18.98
21.91
24.01
25.24
25.68
25.52
25.04
24.47
23.95
23.51
23.09
22.63
22.04
21.27
20.29
19.08
17.67
16.07
14.35
12.50
10.53
8.34
5.85
2.95
-0.38
-4.10
-8.05
-12.06
-15.94
-19.61
-23.04
-26.30
-29.50
-32.81
-36.45
-40.57
-45.16
-49.89
-54.03
-56.60
-56.64
-53.57
-47.41
-38.85
-28.98
-18.97
-9.77
-1.93
4.39
9.27
12.95
15.73
17.86
19.55
20.90
21.94
22.59
22.78
22.46
21.67
20.57
19.32
18.09
16.97
16.01
15.15
14.29
13.26
11.93
10.19
8.00
5.43
2.53
-0.62
-3.97
-7.52
-11.27
-15.19
-19.25
-23.41
-27.71
-32.27
-37.24
-42.72
-48.56
-54.26
-59.02
-61.91
-62.08
-59.11
-53.08
-44.61
-34.62
-24.06
-13.75
-4.23
4.22
11.48
17.56
22.56
26.61
29.86
32.43
34.43
35.91
36.93
37.55
37.86
37.96
37.92
37.77
37.40
36.67
35.43
33.60
31.18
28.36
25.33
22.31
19.40
16.53
13.48
10.07
6.21
2.02
-2.28
-6.43
-10.30
-13.94
-17.53
-21.36
-25.75
-30.96
-37.16
-44.28
-51.95
-59.40
-65.55
-69.24
-69.52
-65.94
-58.67
-48.51
-36.63
-24.30
-12.54
-1.94
7.34
15.45
22.66
29.11
34.75
39.40
42.92
45.25
46.54
47.03
46.98
46.60
45.97
45.23
44.50
43.95
43.70
43.76
43.95
43.95
43.39
41.97
39.51
36.06
31.88
27.31
22.73
18.40
14.41
10.67
6.97
3.08
-1.14
-5.70
-10.40
-14.99
-19.26
-23.20
-26.98
-31.02
-35.71
-41.38
-48.07
-55.48
-62.95
-69.43
-73.75
-74.83
-72.02
-65.31
-55.38
-43.39
-30.56
-17.95
-6.15
4.60
14.24
22.74
30.03
36.07
40.87
44.58
47.39
49.46
50.88
51.72
52.03
51.92
51.54
51.05
50.51
49.96
49.36
48.66
47.82
46.75
45.37
43.60
41.40
38.77
35.75
32.38
28.71
24.81
20.78
16.70
12.63
8.57
4.42
0.08
-4.48
-9.19
-13.89
-18.37
-22.48
-26.26
-29.88
-33.68
-38.00
-43.13
-49.13
-55.74
-62.40
-68.19
-72.05
-73.02
-70.47
-64.30
-55.01
-43.54
-31.06
-18.67
-7.12
3.16
12.13
19.88
26.52
32.08
36.52
39.82
42.04
43.35
43.97
44.12
43.94
43.49
42.80
41.92
40.93
39.90
38.90
37.97
37.04
36.02
34.77
33.11
30.93
28.19
24.98
21.47
17.87
14.29
10.78
7.27
3.69
-0.05
-3.96
-8.06
-12.31
-16.65
-21.01
-25.30
-29.47
-33.54
-37.65
-42.07
-47.08
-52.85
-59.25
-65.71
-71.26
-74.71
-75.02
-71.61
-64.60
-54.76
-43.21
-31.10
-19.27
-8.19
2.01
11.28
19.56
26.74
32.74
37.53
41.21
43.94
45.89
47.17
47.83
47.92
47.49
46.64
45.52
44.30
43.11
42.01
40.96
39.89
38.68
37.22
35.47
33.36
30.87
27.99
24.77
21.35
17.91
14.65
11.62
8.74
5.86
2.83
-0.43
-3.82
-7.17
-10.38
-13.39
-16.28
-19.17
-22.20
-25.53
-29.30
-33.70
-38.93
-45.13
-52.23
-59.83
-67.14
-73.05
-76.37
-76.13
-71.89
-63.89
-53.00
-40.46
-27.51
-15.18
-4.04
5.68
14.04
21.24
27.44
32.76
37.25
40.88
43.64
45.54
46.64
47.06
46.96
46.51
45.90
45.25
44.64
44.06
43.44
42.66
41.62
40.21
38.44
36.30
33.82
31.06
28.06
24.91
21.70
18.45
15.18
11.82
8.30
4.60
0.71
-3.34
-7.52
-11.78
-16.06
-20.21
-24.11
-27.70
-31.04
-34.38
-38.05
-42.37
-47.48
-53.26
-59.27
-64.79
-68.90
-70.67
-69.33
-64.58
-56.61
-46.21
-34.53
-22.76
-11.87
-2.42
5.49
12.03
17.48
22.11
26.06
29.37
32.00
33.94
35.20
35.85
36.06
36.00
35.84
35.70
35.60
35.50
35.41
35.30
35.15
34.89
34.33
33.27
31.53
29.07
25.95
22.43
18.77
15.24
12.00
9.06
6.33
3.63
0.69
-2.69
-6.61
-10.98
-15.56
-20.02
-24.11
-27.74
-31.01
-34.20
-37.70
-41.91
-47.04
-53.03
-59.35
-65.07
-69.01
-70.05
-67.44
-61.06
-51.45
-39.73
-27.26
-15.29
-4.78
3.84
10.64
15.97
20.28
23.90
26.97
29.45
31.31
32.55
33.29
33.66
33.76
33.61
33.15
32.39
31.44
30.48
29.66
29.04
28.54
27.95
27.04
25.56
23.41
20.64
17.47
14.23
11.20
8.54
6.15
3.72
0.95
-2.35
-6.16
-10.23
-14.30
-18.15
-21.71
-25.06
-28.36
-31.87
-35.86
-40.58
-46.06
-51.99
-57.65
-61.97
-63.82
-62.38
-57.40
-49.31
-39.03
-27.74
-16.56
-6.27
2.67
10.14
16.21
21.03
24.77
27.56
29.51
30.71
31.30
31.44
31.29
30.99
30.66
30.37
30.17
30.10
30.17
30.33
30.43
30.24
29.53
28.08
25.87
23.00
19.75
16.45
13.35
10.51
7.79
4.95
1.69
-2.16
-6.61
-11.44
-16.33
-20.96
-25.08
-28.66
-31.94
-35.35
-39.35
-44.24
-49.90
-55.73
-60.67
-63.51
-63.23
-59.32
-51.99
-42.08
-30.81
-19.45
-9.09
-0.38
6.47
11.57
15.29
18.01
20.06
21.56
22.55
23.02
23.00
22.54
21.81
21.02
20.30
19.70
19.13
18.47
17.62
16.54
15.22
13.74
12.26
10.78
9.14
7.02
4.05
0.07
-4.83
-10.30
-15.62
-20.05
-23.22
-25.53
-27.99
-31.75
-37.52
-45.30
-54.61
-64.14
-72.36
-78.32
-82.04
-84.40
-86.32
-88.09
-89.13
-88.69
-85.25
-77.51
-65.38
-50.58
-36.11
-24.90
-18.72
-17.56
-20.53
-24.46
-24.70
-16.19
4.99
40.43
88.80
145.84
205.49
255.83
285.21
288.06
269.25
240.98
214.38
194.00
178.22
166.96
156.57
146.93
140.45
139.45
143.98
151.44
158.12
158.81
151.19
134.28
109.89
81.38
52.37
25.61
2.58
-16.17
-30.59
-40.66
-47.44
-51.66
-53.96
-54.93
-55.20
-55.34
-55.71
-56.44
-57.43
-59.10
-61.45
-64.15
-66.56
-67.90
-67.49
-64.78
-59.40
-51.14
-40.37
-27.57
-13.51
0.73
13.81
24.30
30.99
33.27
31.44
26.41
19.61
12.45
5.90
0.39
-4.14
-7.91
-11.09
-13.64
-15.41
-16.33
-16.50
-16.13
-15.52
-15.03
-15.13
-16.49
-19.96
-26.38
-36.33
-49.80
-65.98
-83.28
-99.68
-113.08
-121.76
-124.78
-122.09
-114.40
-102.95
-89.15
-74.37
-59.76
-46.26
-34.51
-24.87
-17.39
-11.90
-8.12
-5.80
-4.76
-4.84
-5.88
-7.69
-10.13
-13.26
-17.53
-23.76
-32.95
-45.90
-62.75
-82.69
-103.86
-123.56
-138.86
-147.42
-148.25
-142.07
-131.01
-118.02
-105.79
-96.04
-89.32
-85.11
-82.29
-79.55
-75.55
-68.97
-58.69
-44.05
-25.34
-4.01
17.64
37.16
52.93
64.72
73.63
81.33
89.15
97.39
105.25
111.44
114.79
114.76
111.51
105.64
97.92
89.20
80.33
72.11
65.14
59.54
54.81
50.00
44.05
36.30
26.81
16.37
6.16
-2.69
-9.48
-14.13
-16.96
-18.48
-19.04
-18.84
-18.02
-16.99
-16.52
-17.56
-20.80
-26.08
-32.23
-37.27
-39.15
-36.60
-29.61
-19.46
-8.24
1.82
9.02
12.44
12.01
8.31
2.31
-4.81
-11.82
-17.57
-21.13
-21.96
-19.98
-15.58
-9.57
-2.87
3.70
9.66
14.86
19.36
23.24
26.41
28.62
29.49
28.69
25.93
21.16
14.62
7.03
-0.43
-6.38
-9.72
-10.15
-8.43
-6.07
-4.76
-5.77
-9.55
-16.02
-24.86
-35.82
-48.69
-63.02
-77.98
-92.58
-106.08
-118.38
-130.06
-141.87
-154.21
-166.71
-178.30
-187.58
-193.29
-194.56
-190.98
-182.62
-170.01
-154.26
-136.95
-119.82
-104.29
-91.04
-79.86
-69.81
-59.73
-48.68
-36.22
-22.57
-8.42
5.26
17.52
27.66
35.46
41.13
45.19
48.13
50.22
51.45
51.65
50.70
48.62
45.59
41.79
37.26
32.00
25.92
19.12
11.75
3.97
-4.31
-13.42
-23.70
-35.13
-46.93
-57.57
-65.07
-67.68
-64.54
-56.02
-43.61
-29.35
-15.10
-1.96
9.97
21.31
32.83
44.91
57.23
68.78
78.20
84.30
86.47
84.82
80.38
75.01
71.28
72.15
80.19
96.66
120.56
148.37
174.70
193.98
202.34
198.89
185.72
166.60
145.28
124.09
103.81
84.27
65.42
47.75
31.90
18.04
5.28
-8.08
-23.76
-42.53
-63.73
-85.47
-105.45
-121.71
-133.09
-139.22
-140.21
-136.37
-128.02
-115.56
-99.53
-80.67
-59.95
-38.45
-17.20
2.93
21.45
38.19
53.30
66.95
79.22
89.95
98.87
105.69
110.35
113.08
114.32
114.58
114.24
113.47
112.20
110.26
107.51
103.91
99.55
94.61
89.26
83.62
77.63
71.20
64.19
56.52
48.20
39.33
30.14
20.86
11.75
2.95
-5.56
-14.01
-22.87
-32.57
-43.28
-54.60
-65.45
-74.21
-79.15
-78.97
-73.27
-62.65
-48.46
-32.38
-15.88
0.03
14.94
28.77
41.58
53.31
63.79
72.76
80.02
85.49
89.25
91.45
92.28
91.91
90.52
88.31
85.59
82.67
79.91
77.55
75.64
74.05
72.45
70.45
67.72
64.10
59.61
54.50
49.02
43.36
37.50
31.24
24.34
16.72
8.54
0.16
-7.97
-15.52
-22.40
-28.80
-35.12
-41.82
-49.30
-57.70
-66.74
-75.66
-83.22
-87.97
-88.57
-84.23
-75.00
-61.77
-46.02
-29.37
-13.22
1.59
14.71
26.19
36.11
44.52
51.31
56.33
59.54
61.10
61.32
60.59
59.28
57.63
55.78
53.85
51.93
50.13
48.45
46.77
44.87
42.53
39.58
35.99
31.85
27.28
22.39
17.21
11.74
5.99
0.01
-6.13
-12.31
-18.40
-24.37
-30.22
-36.09
-42.19
-48.79
-56.03
-63.74
-71.33
-77.72
-81.65
-81.95
-77.98
-69.85
-58.36
-44.81
-30.53
-16.61
-3.68
7.99
18.39
27.52
35.29
41.60
46.35
49.55
51.34
51.97
51.68
50.73
49.29
47.53
45.64
43.78
42.06
40.49
38.99
37.39
35.50
33.21
30.45
27.23
23.64
19.78
15.75
11.56
7.13
2.36
-2.82
-8.39
-14.14
-19.82
-25.19
-30.15
-34.75
-39.26
-44.05
-49.52
-55.97
-63.33
-71.01
-77.83
-82.24
-82.76
-78.50
-69.50
-56.76
-41.86
-26.49
-11.96
1.00
12.17
21.63
29.58
36.15
41.38
45.29
47.85
49.05
48.93
47.62
45.39
42.60
39.62
36.80
34.33
32.29
30.59
29.04
27.42
25.53
23.23
20.47
17.31
13.82
10.10
6.20
2.07
-2.37
-7.22
-12.52
-18.18
-23.98
-29.62
-34.89
-39.79
-44.53
-49.55
-55.27
-61.87
-69.17
-76.57
-83.17
-88.04
-90.43
-89.90
-86.39
-80.18
-71.80
-61.95
-51.44
-41.06
-31.59
-23.70
-17.87
-14.24
-12.61
-12.40
-12.89
-13.50
-13.98
-14.49
-15.42
-17.18
-19.94
-23.62
-28.04
-32.72
-36.48
-36.98
-30.79
-14.36
14.32
54.14
100.30
145.22
180.71
200.42
201.61
185.50
156.48
120.70
84.75
54.74
35.58
30.03
37.82
55.06
74.72
88.33
88.72
72.53
41.81
3.82
-31.05
-52.58
-54.29
-35.79
-3.11
33.47
63.23
78.87
78.70
66.40
48.58
31.35
18.00
8.48
0.83
-6.77
-14.64
-21.73
-26.82
-29.81
-32.08
-35.77
-42.30
-51.38
-61.00
-68.30
-71.05
-68.79
-63.15
-57.22
-54.14
-55.66
-61.40
-69.06
-75.27
-77.02
-72.71
-62.61
-48.60
-33.43
-19.82
-9.75
-4.15
-2.92
-5.24
-10.00
-16.10
-22.54
-28.44
-32.92
-35.13
-34.43
-30.58
-24.05
-15.96
-7.81
-0.93
3.90
6.70
8.09
8.93
9.85
10.95
11.86
11.96
10.73
8.09
4.41
0.42
-3.11
-5.62
-6.97
-7.45
-7.68
-8.38
-10.06
-12.87
-16.35
-19.54
-21.25
-20.58
-17.28
-12.04
-6.24
-1.50
0.87
0.32
-2.83
-7.53
-12.36
-15.88
-17.03
-15.32
-11.02
-4.98
1.81
8.54
14.84
20.51
25.17
27.92
27.62
23.57
16.27
7.68
0.56
-2.72
-1.42
3.19
8.31
10.90
8.70
0.80
-12.32
-28.86
-45.68
-58.50
-62.76
-55.43
-36.82
-11.50
12.88
28.36
30.00
17.90
-3.32
-26.95
-47.40
-62.01
-71.09
-76.36
-79.25
-80.17
-79.04
-76.33
-73.66
-73.40
-77.51
-86.25
-97.77
-108.67
-115.48
-116.27
-111.49
-103.62
-95.84
-90.36
-87.37
-85.22
-81.47
-74.46
-64.14
-51.96
-39.81
-28.90
-19.15
-9.55
0.94
12.48
24.14
34.32
41.63
45.58
46.72
46.22
45.22
44.27
43.25
41.61
38.91
35.13
30.80
26.67
23.37
21.08
19.58
18.36
16.94
15.07
12.74
10.04
7.05
3.65
-0.36
-5.16
-10.72
-16.84
-23.12
-29.20
-34.86
-40.18
-45.45
-50.99
-57.02
-63.40
-69.61
-74.80
-77.99
-78.33
-75.30
-68.92
-59.68
-48.52
-36.53
-24.84
-14.34
-5.65
1.04
6.06
10.14
14.32
19.58
26.49
34.95
44.23
53.22
60.80
66.21
69.23
70.17
69.77
68.95
68.71
69.92
73.10
78.20
84.51
90.72
95.26
96.75
94.38
88.14
78.79
67.58
55.81
44.40
33.63
23.10
12.05
-0.20
-13.67
-27.47
-39.87
-48.86
-52.79
-51.11
-44.58
-35.05
-24.67
-15.18
-7.39
-1.21
3.90
8.33
11.94
14.23
14.71
13.31
10.59
7.52
5.10
4.09
5.00
8.14
13.74
21.82
32.05
43.51
54.75
64.10
70.22
72.44
70.90
66.36
59.85
52.26
44.13
35.62
26.56
16.73
6.03
-5.39
-17.08
-28.40
-38.70
-47.40
-54.19
-58.99
-62.01
-63.76
-64.97
-66.31
-68.02
-69.40
-68.64
-63.15
-50.36
-28.88
0.80
36.23
73.72
109.50
140.65
165.55
183.59
194.57
198.32
194.66
183.79
166.75
145.69
123.55
103.37
87.42
76.60
70.23
66.53
63.36
59.02
52.74
44.71
35.61
26.09
16.44
6.50
-3.97
-15.00
-26.26
-37.09
-46.81
-55.05
-61.84
-67.51
-72.55
-77.35
-82.12
-86.99
-91.99
-97.20
-102.60
-107.90
-112.41
-115.04
-114.62
-110.25
-101.76
-89.82
-75.78
-61.32
-47.86
-36.29
-26.82
-19.17
-12.88
-7.55
-3.01
0.77
3.69
5.77
7.06
7.66
7.68
7.24
6.47
5.56
4.75
4.23
4.05
4.09
4.03
3.56
2.43
0.58
-1.88
-4.83
-8.17
-11.88
-15.95
-20.39
-25.19
-30.34
-35.85
-41.66
-47.49
-52.74
-56.53
-57.92
-56.20
-51.15
-43.22
-33.30
-22.52
-11.99
-2.53
5.29
11.23
15.27
17.61
18.61
18.74
18.48
18.26
18.44
19.27
20.85
23.08
25.70
28.21
30.07
30.76
29.97
27.59
23.68
18.44
12.22
5.43
-1.38
-7.63
-12.83
-16.75
-19.49
-21.55
-23.69
-26.71
-31.27
-37.54
-45.07
-52.71
-58.89
-61.98
-60.86
-55.29
-45.99
-34.31
-21.76
-9.49
1.87
12.16
21.41
29.56
36.44
41.83
45.61
47.87
48.83
48.77
47.95
46.52
44.67
42.60
40.61
39.03
38.08
37.83
38.11
38.49
38.37
37.16
34.41
29.98
24.10
17.31
10.26
3.53
-2.61
-8.26
-13.80
-19.75
-26.59
-34.52
-43.33
-52.27
-60.20
-65.75
-67.72
-65.40
-58.80
-48.64
-36.13
-22.59
-9.17
3.31
14.39
23.83
31.53
37.45
41.65
44.26
45.58
45.97
45.75
45.13
44.17
42.80
40.93
38.58
35.91
33.18
30.64
28.36
26.20
23.87
21.01
17.36
12.87
7.66
2.11
-3.35
-8.37
-12.79
-16.74
-20.60
-24.86
-29.97
-36.18
-43.40
-51.09
-58.31
-63.78
-66.29
-64.96
-59.64
-50.90
-39.93
-28.06
-16.38
-5.52
4.38
13.40
21.69
29.20
35.75
41.17
45.36
48.31
50.11
50.83
50.53
49.28
47.20
44.53
41.61
38.76
36.24
34.14
32.37
30.73
29.00
27.02
24.69
21.97
18.81
15.13
10.86
5.99
0.64
-5.00
-10.65
-16.05
-21.05
-25.64
-29.94
-34.22
-38.81
-44.00
-49.89
-56.20
-62.23
-66.84
-68.78
-67.04
-61.23
-51.76
-39.66
-26.27
-12.84
-0.26
10.99
20.74
28.96
35.72
41.12
45.31
48.48
50.76
52.20
52.75
52.37
51.11
49.20
46.97
44.75
42.77
41.10
39.65
38.26
36.73
34.89
32.60
29.78
26.45
22.74
18.85
15.03
11.44
8.07
4.76
1.27
-2.63
-6.98
-11.69
-16.49
-21.11
-25.32
-29.04
-32.33
-35.46
-38.81
-42.81
-47.77
-53.75
-60.35
-66.69
-71.58
-73.77
-72.36
-67.09
-58.39
-47.28
-35.02
-22.81
-11.54
-1.66
6.75
13.83
19.82
24.94
29.29
32.88
35.62
37.47
38.43
38.65
38.28
37.50
36.42
35.13
33.68
32.16
30.68
29.29
27.95
26.50
24.73
22.50
19.79
16.76
13.64
10.67
7.93
5.35
2.69
-0.35
-3.95
-8.15
-12.73
-17.34
-21.61
-25.32
-28.53
-31.52
-34.77
-38.70
-43.59
-49.28
-55.28
-60.67
-64.38
-65.43
-63.18
-57.61
-49.29
-39.24
-28.59
-18.29
-8.89
-0.54
6.87
13.51
19.46
24.67
29.05
32.55
35.18
37.02
38.14
38.60
38.42
37.65
36.38
34.80
33.22
31.93
31.17
30.96
31.09
31.14
30.62
29.14
26.53
22.94
18.80
14.67
11.05
8.19
6.05
4.23
2.22
-0.48
-4.07
-8.45
-13.24
-17.93
-22.14
-25.67
-28.64
-31.40
-34.41
-38.09
-42.65
-47.93
-53.38
-58.09
-61.02
-61.27
-58.42
-52.54
-44.28
-34.58
-24.45
-14.73
-5.97
1.59
7.98
13.32
17.81
21.60
24.78
27.39
29.46
30.99
32.00
32.51
32.55
32.16
31.48
30.63
29.75
28.95
28.23
27.54
26.80
25.91
24.80
23.42
21.74
19.73
17.36
14.69
11.84
8.92
6.06
3.24
0.38
-2.65
-5.90
-9.31
-12.75
-16.03
-19.06
-21.87
-24.56
-27.27
-30.12
-33.21
-36.70
-40.71
-45.20
-49.91
-54.26
-57.39
-58.44
-56.81
-52.38
-45.50
-36.91
-27.45
-17.88
-8.78
-0.55
6.56
12.41
16.99
20.42
22.92
24.75
26.10
27.02
27.49
27.45
26.94
26.08
25.05
24.03
23.09
22.25
21.49
20.77
20.10
19.40
18.60
17.54
16.11
14.28
12.12
9.75
7.26
4.68
1.93
-1.04
-4.24
-7.61
-11.04
-14.41
-17.62
-20.63
-23.45
-26.20
-29.06
-32.25
-35.94
-40.03
-44.12
-47.44
-49.11
-48.33
-44.73
-38.48
-30.27
-21.13
-12.09
-3.92
2.96
8.52
12.92
16.38
19.06
21.04
22.39
23.21
23.62
23.79
23.77
23.59
23.20
22.58
21.72
20.70
19.59
18.46
17.35
16.27
15.20
14.10
12.88
11.44
9.71
7.64
5.32
2.78
0.08
-2.81
-5.94
-9.30
-12.82
-16.33
-19.64
-22.63
-25.35
-27.99
-30.84
-34.21
-38.30
-43.10
-48.25
-53.11
-56.77
-58.36
-57.25
-53.24
-46.65
-38.16
-28.68
-19.08
-10.06
-2.06
4.75
10.43
15.12
19.01
22.24
24.86
26.87
28.24
28.99
29.18
28.96
28.44
27.73
26.96
26.23
25.62
25.14
24.73
24.23
23.50
22.44
21.08
19.46
17.64
15.60
13.25
10.49
7.18
3.31
-1.06
-5.80
-10.71
-15.64
-20.45
-25.19
-30.00
-35.13
-40.81
-47.07
-53.62
-59.77
-64.52
-66.79
-65.73
-61.02
-53.03
-42.75
-31.48
-20.46
-10.54
-2.05
5.08
11.11
16.23
20.53
23.93
26.41
28.06
29.05
29.59
29.85
29.86
29.61
29.09
28.31
27.38
26.37
25.37
24.41
23.48
22.49
21.30
19.70
17.47
14.44
10.60
6.10
1.23
-3.69
-8.41
-12.82
-16.93
-20.87
-24.79
-28.95
-33.62
-39.01
-45.09
-51.45
-57.20
-61.15
-62.14
-59.41
-52.92
-43.34
-31.86
-19.80
-8.30
1.91
10.49
17.46
22.99
27.31
30.56
32.83
34.16
34.63
34.40
33.72
32.91
32.19
31.64
31.16
30.59
29.75
28.59
27.13
25.46
23.60
21.53
19.14
16.32
12.95
9.00
4.48
-0.48
-5.73
-11.04
-16.25
-21.25
-26.09
-30.94
-36.11
-41.90
-48.49
-55.82
-63.40
-70.34
-75.47
-77.67
-76.14
-70.75
-62.03
-50.96
-38.69
-26.19
-14.14
-2.86
7.50
16.85
25.09
32.14
37.93
42.46
45.80
48.06
49.40
50.03
50.14
49.89
49.35
48.52
47.36
45.88
44.14
42.25
40.29
38.27
36.09
33.58
30.57
26.89
22.52
17.51
11.99
6.14
0.13
-5.88
-11.75
-17.38
-22.77
-28.05
-33.54
-39.62
-46.60
-54.42
-62.41
-69.35
-73.70
-74.17
-70.06
-61.60
-49.74
-35.89
-21.47
-7.57
5.14
16.38
26.11
34.42
41.44
47.33
52.26
56.32
59.53
61.79
62.97
62.93
61.74
59.61
56.94
54.14
51.57
49.42
47.67
46.14
44.59
42.76
40.48
37.65
34.29
30.40
26.10
21.45
16.51
11.34
5.96
0.47
-5.04
-10.45
-15.68
-20.80
-26.02
-31.68
-38.16
-45.61
-53.79
-61.96
-68.93
-73.33
-73.99
-70.37
-62.65
-51.77
-39.06
-25.84
-13.10
-1.39
9.13
18.47
26.64
33.57
39.19
43.45
46.41
48.23
49.08
49.13
48.53
47.47
46.14
44.74
43.39
42.08
40.71
39.11
37.15
34.77
32.00
28.91
25.55
21.95
18.12
14.02
9.60
4.85
-0.24
-5.61
-11.18
-16.83
-22.44
-27.96
-33.46
-39.13
-45.27
-52.19
-60.08
-68.75
-77.58
-85.47
-91.04
-93.03
-90.69
-83.99
-73.73
-61.18
-47.70
-34.33
-21.58
-9.56
1.79
12.34
21.79
29.73
35.93
40.47
43.70
46.02
47.67
48.56
48.40
46.93
44.19
40.62
36.96
33.93
31.99
31.07
30.69
30.14
28.83
26.56
23.63
20.58
17.90
15.73
13.77
11.50
8.36
4.06
-1.39
-7.65
-14.24
-20.57
-26.12
-30.64
-34.31
-37.73
-41.70
-46.79
-52.83
-58.75
-62.86
-63.41
-59.32
-50.52
-37.94
-23.16
-7.85
6.67
19.55
30.56
39.92
48.12
55.76
63.25
70.70
77.84
84.15
89.08
92.25
93.57
93.23
91.62
89.21
86.39
83.44
80.48
77.46
74.23
70.59
66.37
61.47
55.85
49.57
42.70
35.32
27.45
19.09
10.25
1.08
-8.10
-16.75
-24.22
-29.98
-33.79
-35.93
-37.13
-38.40
-40.86
-45.31
-52.00
-60.41
-69.26
-76.74
-80.91
-80.33
-74.49
-64.00
-50.40
-35.62
-21.46
-9.16
0.74
8.25
13.70
17.55
20.21
22.10
23.57
24.88
26.21
27.58
28.97
30.27
31.39
32.28
32.97
33.48
33.84
34.02
33.95
33.43
32.20
29.99
26.64
22.12
16.62
10.47
4.11
-2.08
-7.79
-12.80
-17.06
-20.65
-23.75
-26.66
-29.79
-33.53
-38.20
-43.93
-50.45
-57.04
-62.63
-65.99
-66.12
-62.58
-55.71
-46.52
-36.41
-26.62
-18.02
-10.90
-5.14
-0.47
3.30
6.21
8.15
9.07
9.10
8.61
8.09
8.05
8.84
10.58
13.12
16.20
19.57
23.00
26.31
29.29
31.62
32.89
32.75
31.00
27.73
23.31
18.23
12.90
7.58
2.20
-3.50
-9.91
-17.40
-26.13
-35.97
-46.44
-56.67
-65.61
-72.16
-75.45
-75.05
-71.08
-64.16
-55.17
-45.02
-34.44
-23.89
-13.61
-3.73
5.59
14.12
21.58
27.73
32.49
36.02
38.59
40.50
42.00
43.13
43.83
43.99
43.54
42.50
40.99
39.11
36.90
34.30
31.11
27.15
22.35
16.79
10.73
4.62
-1.17
-6.37
-10.90
-15.02
-19.06
-23.48
-28.59
-34.48
-40.89
-47.17
-52.41
-55.64
-56.16
-53.71
-48.64
-41.74
-33.90
-25.92
-18.18
-10.83
-3.81
2.82
8.93
14.24
18.50
21.63
23.73
24.98
25.62
25.82
25.63
25.08
24.18
22.98
21.67
20.44
19.49
18.88
18.46
17.96
16.99
15.31
12.83
9.74
6.35
2.96
-0.22
-3.16
-6.01
-8.97
-12.26
-16.11
-20.57
-25.58
-30.77
-35.47
-38.83
-39.99
-38.39
-33.95
-27.14
-18.84
-10.04
-1.63
5.81
12.04
17.06
20.96
23.83
25.71
26.58
26.48
25.56
24.06
22.29
20.49
18.80
17.25
15.75
14.30
12.92
11.74
10.85
10.22
9.65
8.83
7.43
5.33
2.59
-0.50
-3.60
-6.41
-8.87
-11.14
-13.58
-16.59
-20.42
-25.00
-29.91
-34.41
-37.66
-38.91
-37.69
-33.96
-28.06
-20.65
-12.51
-4.43
2.97
9.25
14.20
17.81
20.21
21.63
22.29
22.43
22.24
21.86
21.38
20.83
20.12
19.18
17.89
16.23
14.27
12.17
10.13
8.30
6.70
5.25
3.77
2.10
0.21
-1.84
-3.96
-6.05
-8.22
-10.65
-13.65
-17.43
-21.98
-26.99
-31.81
-35.65
-37.68
-37.31
-34.39
-29.22
-22.51
-15.09
-7.72
-0.94
4.96
9.85
13.67
16.34
17.88
18.40
18.23
17.77
17.40
17.31
17.45
17.63
17.65
17.48
17.20
16.98
16.85
16.67
16.05
14.62
12.08
8.43
3.94
-0.97
-5.88
-10.51
-14.82
-18.94
-23.15
-27.73
-32.88
-38.63
-44.67
-50.38
-54.84
-57.10
-56.48
-52.82
-46.53
-38.46
-29.62
-20.85
-12.70
-5.41
0.95
6.31
10.59
13.72
15.71
16.67
16.75
16.18
15.19
13.97
12.70
11.50
10.36
9.23
8.01
6.61
5.00
3.17
1.08
-1.47
-4.68
-8.64
-13.25
-18.15
-23.04
-27.67
-32.03
-36.45
-41.54
-47.83
-55.47
-64.10
-72.73
-80.35
-85.80
-88.30
-87.79
-85.15
-81.68
-78.61
-76.69
-75.75
-75.36
-74.60
-72.55
-69.09
-65.08
-62.14
-62.10
-66.44
-75.10
-86.62
-97.34
-102.34
-97.31
-80.34
-52.34
-16.80
21.51
61.51
99.53
131.42
154.62
169.42
178.03
182.96
187.16
190.72
192.80
192.11
188.41
182.66
176.46
169.37
161.70
153.46
144.15
133.46
121.08
107.61
94.20
81.88
70.96
61.30
52.26
43.07
33.58
23.97
15.05
7.69
2.34
-1.26
-3.77
-6.10
-9.07
-12.87
-17.28
-21.76
-25.74
-28.94
-31.37
-33.05
-34.03
-34.32
-33.90
-32.90
-31.65
-30.54
-29.89
-29.79
-29.98
-30.09
-29.82
-29.07
-28.01
-26.91
-26.06
-25.60
-25.57
-25.92
-26.63
-27.68
-29.03
-30.54
-31.98
-33.10
-33.69
-33.67
-33.03
-31.67
-29.47
-26.22
-21.86
-16.56
-10.76
-5.03
0.15
4.58
8.55
12.63
17.53
23.78
31.48
40.27
49.47
58.25
65.94
72.25
77.26
81.37
85.00
88.35
91.29
93.37
94.04
92.92
89.94
85.41
79.78
73.47
66.63
59.17
50.87
41.66
31.81
21.87
12.53
4.25
-2.94
-9.54
-16.35
-24.19
-33.72
-45.38
-59.48
-76.06
-94.53
-113.20
-129.12
-138.76
-139.34
-130.14
-113.07
-91.92
-70.80
-52.49
-37.80
-26.18
-16.97
-10.40
-7.59
-9.58
-16.25
-25.85
-35.73
-43.51
-48.18
-50.29
-51.28
-52.56
-54.82
-57.89
-61.07
-63.60
-64.96
-64.95
-63.61
-61.09
-57.62
-53.52
-49.11
-44.71
-40.62
-37.18
-34.78
-33.83
-34.60
-36.94
-40.23
-43.51
-45.73
-46.28
-45.22
-43.24
-41.31
-40.32
-40.72
-42.39
-44.75
-46.93
-47.93
-46.83
-43.01
-36.36
-27.40
-17.23
-7.28
1.12
7.11
10.50
11.70
11.56
11.11
11.28
12.70
15.47
19.13
22.75
25.22
25.67
23.72
19.56
13.74
6.94
-0.27
-7.42
-14.03
-19.49
-23.08
-24.14
-22.31
-17.72
-10.96
-2.91
5.59
14.07
22.64
31.93
42.85
56.11
71.75
88.87
105.67
119.76
128.71
130.67
124.95
112.45
95.54
77.56
61.78
50.32
43.54
39.90
36.84
31.72
22.84
9.86
-6.43
-24.59
-43.16
-60.87
-76.69
-89.75
-99.38
-105.25
-107.48
-106.64
-103.53
-98.83
-92.99
-86.13
-78.34
-69.93
-61.56
-54.02
-47.94
-43.37
-39.69
-35.77
-30.33
-22.42
-11.66
1.56
16.24
30.91
44.09
54.72
62.56
68.44
73.98
80.97
90.49
102.36
114.97
125.92
132.88
134.47
130.58
122.22
110.99
98.42
85.63
73.25
61.64
50.97
41.41
32.95
25.42
18.40
11.44
4.32
-2.78
-9.29
-14.45
-17.67
-18.93
-18.84
-18.49
-19.07
-21.38
-25.56
-30.97
-36.45
-40.62
-42.41
-41.31
-37.67
-32.56
-27.57
-24.30
-23.88
-26.62
-31.95
-38.64
-45.27
-50.61
-53.91
-54.92
-53.70
-50.49
-45.59
-39.29
-31.91
-23.83
-15.40
-6.97
1.17
8.77
15.57
21.31
25.69
28.45
29.48
28.85
26.96
24.49
22.29
21.12
21.42
23.10
25.60
28.12
29.87
30.31
29.32
27.09
24.06
20.67
17.29
14.10
11.09
8.12
5.02
1.70
-1.86
-5.62
-9.52
-13.62
-18.00
-22.71
-27.63
-32.40
-36.49
-39.25
-40.14
-38.86
-35.38
-30.01
-23.32
-16.05
-8.95
-2.55
2.95
7.64
11.78
15.63
19.21
22.35
24.76
26.22
26.77
26.64
26.20
25.75
25.44
25.22
24.92
24.37
23.48
22.25
20.74
19.01
17.08
14.90
12.41
9.58
6.47
3.20
-0.00
-2.98
-5.67
-8.14
-10.60
-13.24
-16.23
-19.63
-23.42
-27.50
-31.61
-35.35
-38.20
-39.57
-38.98
-36.23
-31.44
-25.06
-17.69
-9.99
-2.56
4.19
9.96
14.69
18.39
21.20
23.21
24.51
25.12
25.10
24.54
23.57
22.39
21.09
19.75
18.37
16.96
15.55
14.17
12.83
11.44
9.85
7.91
5.52
2.67
-0.62
-4.29
-8.30
-12.62
-17.13
-21.73
-26.35
-31.04
-36.00
-41.51
-47.74
-54.66
-61.89
-68.72
-74.24
-77.60
-78.24
-76.08
-71.54
-65.41
-58.62
-51.98
-45.95
-40.70
-36.05
-31.67
-27.12
-21.92
-15.52
-7.47
2.53
14.50
28.15
42.97
58.33
73.57
88.03
101.12
112.27
121.04
127.16
130.63
131.63
130.43
127.24
122.10
114.94
105.75
94.71
82.18
68.68
54.68
40.42
25.92
11.03
-4.38
-20.26
-36.27
-51.78
-65.98
-77.92
-86.70
-91.59
-92.21
-88.58
-81.22
-71.02
-59.06
-46.41
-33.87
-21.99
-11.10
-1.37
7.04
13.99
19.40
23.33
25.93
27.39
27.86
27.36
25.82
23.22
19.65
15.51
11.40
7.98
5.81
5.15
5.87
7.55
9.56
11.31
12.31
12.31
11.29
9.38
6.76
3.58
-0.17
-4.60
-9.85
-16.00
-22.84
-29.92
-36.55
-41.96
-45.53
-46.87
-45.86
-42.62
-37.57
-31.25
-24.39
-17.73
-11.92
-7.39
-4.23
-2.33
-1.43
-1.22
-1.41
-1.64
-1.48
-0.53
1.49
4.57
8.31
12.13
15.52
18.17
20.13
21.57
22.64
23.19
22.90
21.35
18.39
14.22
9.39
4.64
0.64
-2.25
-4.01
-4.99
-5.71
-6.78
-8.69
-11.76
-16.03
-21.24
-26.78
-31.75
-35.15
-36.08
-34.07
-29.25
-22.33
-14.40
-6.51
0.62
6.84
12.33
17.36
22.05
26.19
29.41
31.40
32.13
31.93
31.26
30.57
30.04
29.65
29.21
28.58
27.83
27.17
26.89
27.12
27.70
28.21
28.11
26.98
24.65
21.34
17.53
13.76
10.40
7.53
4.91
2.14
-1.14
-5.17
-10.03
-15.56
-21.41
-27.02
-31.67
-34.65
-35.46
-34.01
-30.62
-25.97
-20.86
-15.94
-11.59
-7.96
-5.03
-2.78
-1.20
-0.28
0.06
-0.02
-0.30
-0.61
-0.85
-1.03
-1.17
-1.33
-1.49
-1.64
-1.77
-1.94
-2.23
-2.74
-3.48
-4.39
-5.32
-6.14
-6.76
-7.19
-7.50
-7.83
-8.35
-9.25
-10.73
-12.90
-15.71
-18.91
-21.97
-24.17
-24.77
-23.24
-19.41
-13.56
-6.35
1.35
8.71
15.10
20.21
23.99
26.60
28.21
28.99
28.99
28.30
27.02
25.36
23.55
21.79
20.21
18.78
17.41
15.98
14.39
12.62
10.64
8.43
5.96
3.25
0.39
-2.45
-5.13
-7.56
-9.81
-12.13
-14.86
-18.34
-22.70
-27.84
-33.23
-38.07
-41.41
-42.38
-40.47
-35.77
-28.87
-20.78
-12.52
-4.91
1.64
7.08
11.64
15.58
19.11
22.26
24.99
27.20
28.78
29.69
29.93
29.51
28.48
26.90
24.89
22.55
20.01
17.38
14.70
11.95
9.02
5.75
2.02
-2.26
-7.00
-11.95
-16.83
-21.40
-25.57
-29.52
-33.53
-37.82
-42.30
-46.50
-49.60
-50.77
-49.41
-45.38
-39.00
-30.96
-21.99
-12.75
-3.77
4.56
11.96
18.19
23.19
26.97
29.67
31.45
32.45
32.76
32.45
31.61
30.36
28.83
27.10
25.23
23.27
21.28
19.35
17.51
15.75
13.96
12.02
9.82
7.34
4.62
1.70
-1.35
-4.45
-7.56
-10.63
-13.74
-17.01
-20.61
-24.59
-28.74
-32.54
-35.24
-36.12
-34.74
-31.14
-25.79
-19.37
-12.60
-6.01
0.10
5.60
10.41
14.46
17.67
19.98
21.46
22.26
22.66
22.89
23.10
23.31
23.38
23.19
22.59
21.54
20.15
18.59
17.07
15.73
14.51
13.25
11.67
9.54
6.78
3.50
-0.03
-3.51
-6.73
-9.61
-12.25
-14.77
-17.31
-19.96
-22.82
-25.94
-29.36
-32.95
-36.36
-39.01
-40.26
-39.56
-36.75
-31.99
-25.84
-18.98
-12.08
-5.61
0.21
5.37
9.95
14.04
17.60
20.51
22.55
23.59
23.66
22.97
21.89
20.78
19.85
19.09
18.31
17.33
16.08
14.62
13.13
11.74
10.46
9.15
7.56
5.53
2.98
0.03
-3.11
-6.19
-9.06
-11.72
-14.29
-17.02
-20.13
-23.78
-27.93
-32.35
-36.57
-39.97
-41.90
-41.88
-39.71
-35.58
-29.97
-23.54
-16.88
-10.41
-4.33
1.28
6.41
11.02
15.06
18.47
21.23
23.35
24.80
25.56
25.62
25.08
24.11
22.96
21.82
20.78
19.79
18.76
17.58
16.18
14.54
12.65
10.50
8.12
5.56
2.93
0.34
-2.20
-4.77
-7.54
-10.72
-14.48
-18.82
-23.51
-28.12
-32.02
-34.55
-35.13
-33.47
-29.65
-24.12
-17.57
-10.75
-4.22
1.67
6.83
11.28
15.05
18.13
20.52
22.19
23.20
23.62
23.55
23.03
22.10
20.82
19.33
17.80
16.41
15.28
14.36
13.53
12.55
11.22
9.41
7.09
4.35
1.32
-1.83
-4.94
-7.96
-10.86
-13.79
-16.94
-20.52
-24.63
-29.11
-33.48
-37.02
-38.90
-38.52
-35.73
-30.85
-24.60
-17.75
-10.94
-4.51
1.41
6.81
11.61
15.71
18.99
21.46
23.23
24.45
25.24
25.62
25.56
25.07
24.24
23.24
22.21
21.15
20.00
18.70
17.19
15.50
13.64
11.57
9.22
6.51
3.45
0.18
-3.12
-6.27
-9.23
-12.11
-15.13
-18.48
-22.29
-26.54
-31.05
-35.45
-39.19
-41.65
-42.21
-40.54
-36.64
-30.89
-24.01
-16.72
-9.62
-3.01
3.08
8.74
14.00
18.73
22.70
25.61
27.32
27.87
27.55
26.73
25.78
25.01
24.52
24.30
24.22
24.07
23.65
22.82
21.56
19.92
18.04
16.07
14.15
12.30
10.47
8.50
6.23
3.53
0.37
-3.20
-6.98
-10.74
-14.31
-17.61
-20.72
-23.83
-27.18
-30.94
-35.16
-39.66
-44.07
-47.85
-50.36
-50.99
-49.34
-45.32
-39.24
-31.74
-23.57
-15.43
-7.78
-0.79
5.53
11.23
16.26
20.56
24.04
26.72
28.70
30.13
31.14
31.75
31.92
31.66
31.04
30.30
29.65
29.25
29.06
28.88
28.40
27.40
25.79
23.69
21.28
18.77
16.20
13.53
10.64
7.44
3.94
0.29
-3.32
-6.75
-9.99
-13.11
-16.24
-19.51
-22.99
-26.73
-30.84
-35.43
-40.48
-45.73
-50.59
-54.18
-55.66
-54.48
-50.61
-44.51
-36.96
-28.74
-20.43
-12.32
-4.56
2.70
9.29
14.94
19.50
22.96
25.47
27.33
28.78
29.96
30.84
31.32
31.32
30.90
30.27
29.72
29.44
29.43
29.47
29.22
28.39
26.92
24.91
22.63
20.33
18.05
15.74
13.25
10.44
7.28
3.82
0.17
-3.56
-7.25
-10.82
-14.24
-17.59
-20.98
-24.60
-28.62
-33.14
-38.05
-43.10
-47.79
-51.45
-53.35
-52.85
-49.68
-43.98
-36.34
-27.66
-18.81
-10.49
-3.04
3.42
8.97
13.62
17.35
20.07
21.77
22.56
22.67
22.43
22.13
21.96
21.99
22.14
22.28
22.27
21.97
21.32
20.28
18.85
17.09
15.11
13.03
10.92
8.77
6.49
3.90
0.86
-2.69
-6.73
-11.10
-15.60
-20.05
-24.36
-28.51
-32.65
-36.99
-41.76
-47.11
-52.86
-58.45
-62.94
-65.31
-64.73
-60.87
-54.07
-45.14
-35.11
-24.96
-15.35
-6.64
1.05
7.75
13.57
18.61
22.97
26.67
29.68
31.92
33.36
34.03
34.12
33.88
33.58
33.38
33.31
33.32
33.25
32.93
32.19
30.90
28.97
26.45
23.42
20.07
16.53
12.84
8.98
4.87
0.46
-4.23
-9.12
-14.06
-18.96
-23.77
-28.59
-33.64
-39.21
-45.50
-52.43
-59.51
-65.83
-70.25
-71.73
-69.69
-64.16
-55.76
-45.42
-34.15
-22.74
-11.81
-1.73
7.28
15.11
21.80
27.48
32.30
36.38
39.72
42.25
43.91
44.72
44.85
44.57
44.13
43.70
43.28
42.80
42.07
40.90
39.15
36.79
33.90
30.69
27.40
24.26
21.33
18.48
15.39
11.74
7.32
2.23
-3.24
-8.68
-13.78
-18.53
-23.14
-28.04
-33.61
-40.09
-47.40
-55.16
-62.61
-68.78
-72.56
-73.00
-69.58
-62.45
-52.39
-40.60
-28.31
-16.45
-5.51
4.43
13.38
21.36
28.25
33.92
38.31
41.54
43.84
45.42
46.47
47.05
47.24
47.15
46.97
46.84
46.78
46.68
46.27
45.31
43.66
41.33
38.47
35.26
31.83
28.22
24.39
20.25
15.75
10.90
5.78
0.55
-4.67
-9.75
-14.66
-19.47
-24.29
-29.39
-35.03
-41.40
-48.43
-55.62
-61.95
-66.14
-66.95
-63.70
-56.49
-46.22
-34.26
-21.97
-10.39
0.00
9.15
17.20
24.28
30.37
35.37
39.15
41.73
43.23
43.94
44.10
43.93
43.55
43.00
42.28
41.37
40.30
39.08
37.70
36.12
34.26
32.08
29.58
26.81
23.77
20.49
16.91
12.99
8.74
4.25
-0.36
-4.99
-9.63
-14.40
-19.51
-25.13
-31.44
-38.33
-45.45
-52.10
-57.29
-59.91
-59.09
-54.43
-46.27
-35.53
-23.55
-11.57
-0.54
9.06
17.16
23.84
29.27
33.54
36.69
38.80
39.97
40.38
40.22
39.71
39.05
38.34
37.62
36.84
35.91
34.77
33.35
31.68
29.80
27.75
25.53
23.03
20.07
16.47
12.14
7.16
1.80
-3.57
-8.65
-13.32
-17.67
-21.98
-26.59
-31.77
-37.69
-44.39
-51.70
-59.21
-66.16
-71.48
-74.06
-73.08
-68.23
-59.94
-49.18
-37.17
-25.00
-13.45
-2.85
6.74
15.42
23.23
30.16
36.13
41.05
44.85
47.53
49.15
49.84
49.80
49.23
48.32
47.26
46.18
45.23
44.45
43.79
43.01
41.79
39.82
36.94
33.29
29.23
25.14
21.28
17.61
13.88
9.81
5.23
0.22
-4.99
-10.14
-15.07
-19.80
-24.55
-29.58
-35.20
-41.60
-48.79
-56.44
-63.86
-70.00
-73.70
-74.03
-70.51
-63.36
-53.34
-41.58
-29.19
-17.07
-5.79
4.40
13.44
21.44
28.45
34.55
39.72
43.93
47.13
49.27
50.39
50.58
50.00
48.83
47.26
45.45
43.55
41.74
40.15
38.85
37.83
36.93
35.88
34.44
32.39
29.67
26.39
22.77
19.07
15.46
11.97
8.49
4.85
0.89
-3.49
-8.23
-13.12
-17.95
-22.56
-26.90
-31.09
-35.35
-39.98
-45.25
-51.25
-57.82
-64.45
-70.30
-74.28
-75.39
-72.97
-66.90
-57.72
-46.45
-34.29
-22.33
-11.29
-1.46
7.18
14.87
21.83
28.10
33.57
38.03
41.24
43.13
43.86
43.77
43.23
42.60
41.99
41.40
40.75
39.98
39.15
38.32
37.53
36.68
35.57
33.96
31.72
28.90
25.68
22.26
18.79
15.30
11.81
8.33
4.92
1.65
-1.54
-4.80
-8.32
-12.17
-16.26
-20.26
-23.86
-26.95
-29.74
-32.67
-36.28
-40.88
-46.39
-52.35
-57.94
-62.22
-64.27
-63.43
-59.41
-52.41
-43.08
-32.37
-21.32
-10.79
-1.36
6.74
13.51
19.09
23.58
27.06
29.55
31.12
31.92
32.14
32.00
31.66
31.15
30.44
29.52
28.49
27.54
26.94
26.76
26.85
26.84
26.30
24.92
22.65
19.67
16.28
12.74
9.17
5.55
1.81
-2.15
-6.32
-10.66
-15.01
-19.21
-23.10
-26.63
-29.87
-33.08
-36.61
-40.78
-45.68
-51.04
-56.18
-60.13
-61.86
-60.58
-56.06
-48.66
-39.27
-29.03
-18.95
-9.69
-1.53
5.50
11.46
16.39
20.28
23.20
25.33
26.93
28.21
29.25
29.94
30.10
29.66
28.74
27.60
26.61
25.99
25.75
25.73
25.65
25.20
24.17
22.47
20.10
17.22
14.02
10.69
7.36
4.08
0.78
-2.69
-6.43
-10.43
-14.58
-18.73
-22.72
-26.48
-30.08
-33.68
-37.49
-41.77
-46.64
-52.02
-57.46
-62.17
-65.17
-65.54
-62.76
-56.84
-48.43
-38.49
-28.08
-18.04
-8.86
-0.71
6.42
12.58
17.81
22.14
25.63
28.42
30.64
32.39
33.66
34.32
34.27
33.53
32.26
30.79
29.45
28.47
27.87
27.51
27.15
26.52
25.44
23.78
21.56
18.89
15.94
12.87
9.73
6.49
3.01
-0.81
-4.98
-9.35
-13.69
-17.81
-21.63
-25.22
-28.74
-32.40
-36.42
-40.96
-46.11
-51.76
-57.51
-62.55
-65.87
-66.45
-63.66
-57.46
-48.52
-37.96
-27.05
-16.79
-7.78
-0.12
6.39
12.03
17.03
21.48
25.33
28.51
30.96
32.66
33.60
33.78
33.27
32.25
31.01
29.93
29.29
29.17
29.37
29.51
29.16
28.08
26.20
23.74
20.97
18.14
15.39
12.71
9.96
6.96
3.53
-0.41
-4.83
-9.51
-14.16
-18.52
-22.45
-26.00
-29.47
-33.24
-37.66
-42.85
-48.53
-54.03
-58.33
-60.34
-59.27
-54.86
-47.54
-38.28
-28.29
-18.58
-9.78
-2.00
4.90
11.14
16.77
21.64
25.49
28.17
29.71
30.34
30.41
30.21
29.95
29.71
29.48
29.28
29.07
28.83
28.46
27.81
26.73
25.14
23.03
20.49
17.64
14.62
11.54
8.43
5.32
2.20
-1.01
-4.31
-7.75
-11.25
-14.75
-18.21
-21.66
-25.23
-29.16
-33.65
-38.78
-44.32
-49.61
-53.68
-55.48
-54.24
-49.79
-42.58
-33.59
-23.89
-14.41
-5.66
2.15
9.03
14.96
19.89
23.74
26.39
27.87
28.29
27.87
26.88
25.60
24.27
23.03
21.99
21.13
20.42
19.79
19.13
18.34
17.32
15.98
14.27
12.12
9.52
6.49
3.03
-0.79
-4.81
-8.85
-12.77
-16.49
-20.03
-23.54
-27.24
-31.39
-36.18
-41.67
-47.63
-53.55
-58.65
-62.04
-62.94
-60.92
-55.98
-48.61
-39.58
-29.81
-20.08
-10.92
-2.58
4.92
11.68
17.78
23.26
27.97
31.72
34.40
36.04
36.85
37.13
37.16
37.12
37.00
36.73
36.22
35.47
34.56
33.57
32.47
31.17
29.49
27.33
24.67
21.67
18.46
15.15
11.76
8.22
4.44
0.38
-3.92
-8.37
-12.84
-17.22
-21.49
-25.72
-30.13
-34.99
-40.57
-46.98
-54.00
-60.97
-66.87
-70.55
-71.03
-67.85
-61.23
-51.97
-41.21
-30.09
-19.40
-9.56
-0.57
7.69
15.36
22.48
28.95
34.64
39.43
43.28
46.18
48.19
49.35
49.72
49.33
48.31
46.90
45.43
44.26
43.61
43.45
43.48
43.20
42.10
39.90
36.69
32.82
28.78
24.96
21.52
18.32
15.08
11.53
7.53
3.08
-1.67
-6.55
-11.40
-16.06
-20.47
-24.55
-28.37
-32.12
-36.08
-40.62
-45.97
-52.07
-58.45
-64.22
-68.23
-69.38
-66.93
-60.83
-51.72
-40.77
-29.33
-18.49
-8.83
-0.36
7.25
14.39
21.23
27.64
33.33
37.98
41.45
43.80
45.25
46.03
46.33
46.25
45.85
45.19
44.37
43.55
42.86
42.35
41.94
41.40
40.43
38.79
36.44
33.52
30.32
27.11
24.01
20.96
17.76
14.22
10.31
6.11
1.85
-2.28
-6.13
-9.72
-13.14
-16.56
-20.17
-24.11
-28.49
-33.34
-38.65
-44.34
-50.23
-55.92
-60.79
-64.00
-64.69
-62.26
-56.61
-48.22
-38.06
-27.23
-16.71
-7.10
1.39
8.78
15.12
20.46
24.77
28.07
30.46
32.10
33.18
33.85
34.18
34.19
33.91
33.38
32.76
32.20
31.83
31.69
31.69
31.66
31.34
30.49
28.96
26.72
23.90
20.74
17.46
14.24
11.10
7.93
4.55
0.81
-3.25
-7.47
-11.55
-15.24
-18.43
-21.30
-24.20
-27.56
-31.76
-36.92
-42.85
-48.98
-54.44
-58.26
-59.56
-57.81
-52.95
-45.46
-36.15
-25.99
-15.85
-6.39
2.04
9.28
15.35
20.33
24.37
27.58
30.06
31.87
33.01
33.53
33.45
32.90
32.00
30.92
29.82
28.84
28.07
27.53
27.14
26.72
26.04
24.88
23.11
20.72
17.81
14.59
11.22
7.83
4.43
0.96
-2.65
-6.41
-10.27
-14.14
-17.91
-21.56
-25.11
-28.63
-32.23
-36.02
-40.14
-44.67
-49.61
-54.68
-59.31
-62.65
-63.81
-62.14
-57.48
-50.23
-41.23
-31.46
-21.70
-12.48
-3.98
3.78
10.81
17.05
22.38
26.73
30.10
32.60
34.40
35.63
36.41
36.78
36.76
36.42
35.84
35.16
34.50
33.92
33.40
32.88
32.24
31.36
30.12
28.41
26.22
23.57
20.59
17.42
14.18
10.91
7.58
4.12
0.47
-3.37
-7.36
-11.47
-15.63
-19.79
-23.88
-27.82
-31.57
-35.26
-39.12
-43.48
-48.52
-54.09
-59.65
-64.25
-66.85
-66.63
-63.21
-56.80
-48.15
-38.27
-28.16
-18.57
-9.86
-2.12
4.77
10.92
16.37
21.08
24.99
28.08
30.40
32.05
33.15
33.81
34.10
34.16
34.10
34.04
34.01
33.99
33.90
33.65
33.16
32.35
31.19
29.59
27.51
24.95
21.98
18.80
15.58
12.45
9.44
6.48
3.42
0.07
-3.68
-7.83
-12.26
-16.75
-21.04
-25.04
-28.79
-32.58
-36.72
-41.50
-46.94
-52.83
-58.64
-63.66
-67.08
-68.19
-66.48
-61.84
-54.56
-45.33
-35.05
-24.59
-14.68
-5.71
2.17
8.98
14.79
19.65
23.64
26.75
29.06
30.62
31.53
31.90
31.85
31.52
31.04
30.56
30.18
29.95
29.83
29.71
29.39
28.70
27.53
25.85
23.72
21.25
18.56
15.73
12.76
9.60
6.12
2.26
-1.94
-6.37
-10.74
-14.81
-18.37
-21.45
-24.26
-27.17
-30.57
-34.73
-39.63
-44.83
-49.53
-52.72
-53.44
-51.09
-45.64
-37.66
-28.12
-18.11
-8.57
-0.09
7.08
12.97
17.72
21.46
24.31
26.32
27.54
28.08
28.06
27.65
27.05
26.37
25.73
25.17
24.69
24.28
23.87
23.37
22.64
21.59
20.13
18.28
16.09
13.60
10.81
7.66
4.09
0.11
-4.18
-8.61
-13.00
-17.22
-21.24
-25.13
-29.07
-33.37
-38.36
-44.23
-50.87
-57.68
-63.58
-67.32
-67.79
-64.54
-57.83
-48.60
-38.07
-27.38
-17.31
-8.23
-0.20
6.89
13.16
18.66
23.42
27.47
30.80
33.46
35.44
36.73
37.33
37.30
36.75
35.94
35.14
34.58
34.35
34.31
34.16
33.57
32.31
30.33
27.78
24.85
21.73
18.52
15.20
11.71
7.95
3.80
-0.78
-5.74
-10.93
-16.09
-21.04
-25.70
-30.24
-35.00
-40.41
-46.73
-53.86
-61.24
-67.88
-72.55
-74.14
-71.98
-66.08
-57.10
-46.15
-34.44
-22.91
-12.12
-2.28
6.60
14.49
21.36
27.16
31.90
35.71
38.77
41.24
43.14
44.43
45.07
45.09
44.70
44.15
43.69
43.46
43.41
43.30
42.82
41.69
39.82
37.27
34.29
31.15
28.01
24.86
21.56
17.87
13.60
8.72
3.38
-2.16
-7.59
-12.72
-17.50
-21.98
-26.40
-31.05
-36.27
-42.28
-49.11
-56.41
-63.38
-68.88
-71.74
-71.07
-66.60
-58.67
-48.19
-36.28
-24.08
-12.47
-1.97
7.16
14.95
21.56
27.21
32.05
36.15
39.49
42.03
43.76
44.77
45.19
45.16
44.82
44.25
43.59
42.95
42.45
42.06
41.66
40.99
39.83
38.03
35.66
32.87
29.86
26.73
23.40
19.73
15.57
10.87
5.73
0.40
-4.90
-9.92
-14.62
-19.08
-23.54
-28.27
-33.56
-39.53
-46.05
-52.64
-58.47
-62.44
-63.53
-61.06
-54.99
-45.95
-35.06
-23.61
-12.63
-2.77
5.78
13.06
19.22
24.40
28.64
31.97
34.43
36.06
36.97
37.28
37.21
37.00
36.87
36.91
37.09
37.25
37.22
36.85
36.11
34.99
33.49
31.57
29.15
26.19
22.64
18.55
13.99
9.08
3.94
-1.31
-6.52
-11.63
-16.62
-21.61
-26.79
-32.36
-38.48
-45.07
-51.81
-58.09
-63.05
-65.79
-65.56
-61.96
-55.15
-45.82
-35.02
-23.90
-13.38
-4.02
4.06
11.02
17.09
22.47
27.14
30.98
33.81
35.55
36.31
36.35
36.02
35.62
35.35
35.21
35.09
34.88
34.48
33.83
32.87
31.50
29.64
27.21
24.26
20.90
17.34
13.68
9.93
6.00
1.75
-2.90
-7.89
-13.07
-18.22
-23.20
-27.99
-32.75
-37.75
-43.31
-49.57
-56.35
-63.03
-68.63
-71.97
-72.13
-68.63
-61.69
-52.07
-40.85
-29.11
-17.70
-7.13
2.38
10.78
18.14
24.55
30.08
34.79
38.67
41.67
43.73
44.81
44.96
44.33
43.19
41.86
40.68
39.87
39.44
39.22
38.85
37.96
36.30
33.85
30.81
27.46
24.06
20.69
17.22
13.45
9.19
4.37
-0.92
-6.47
-12.02
-17.34
-22.32
-27.00
-31.59
-36.44
-41.91
-48.16
-54.98
-61.70
-67.23
-70.33
-70.00
-65.82
-58.09
-47.78
-36.19
-24.54
-13.73
-4.16
4.17
11.45
17.92
23.68
28.66
32.77
35.89
37.96
39.07
39.38
39.14
38.63
38.10
37.71
37.48
37.32
37.09
36.66
35.90
34.76
33.19
31.20
28.78
25.98
22.85
19.45
15.83
11.95
7.74
3.08
-2.04
-7.52
-13.13
-18.59
-23.66
-28.30
-32.68
-37.18
-42.20
-48.03
-54.54
-61.16
-66.86
-70.38
-70.66
-67.18
-60.15
-50.44
-39.30
-27.93
-17.20
-7.55
0.94
8.34
14.72
20.11
24.47
27.80
30.14
31.56
32.16
32.09
31.53
30.77
30.09
29.67
29.56
29.63
29.63
29.30
28.47
27.11
25.31
23.17
20.77
18.10
15.13
11.81
8.14
4.15
-0.05
-4.30
-8.50
-12.57
-16.54
-20.57
-24.89
-29.75
-35.28
-41.38
-47.59
-53.12
-56.96
-58.14
-56.06
-50.72
-42.67
-32.94
-22.64
-12.68
-3.57
4.49
11.54
17.57
22.52
26.25
28.69
29.92
30.21
29.95
29.53
29.20
28.97
28.69
28.15
27.22
25.93
24.48
23.04
21.73
20.44
18.88
16.76
13.87
10.22
5.99
1.46
-3.11
-7.55
-11.75
-15.71
-19.55
-23.46
-27.73
-32.66
-38.46
-45.09
-52.24
-59.20
-65.05
-68.77
-69.52
-66.83
-60.75
-51.83
-40.99
-29.28
-17.66
-6.78
3.04
11.73
19.31
25.88
31.47
36.06
39.62
42.10
43.55
44.09
43.94
43.36
42.62
41.86
41.12
40.36
39.55
38.72
37.90
37.06
36.02
34.45
32.08
28.80
24.76
20.24
15.55
10.83
6.03
1.06
-4.13
-9.46
-14.74
-19.87
-24.92
-30.11
-35.79
-42.18
-49.23
-56.56
-63.41
-68.76
-71.58
-71.08
-66.98
-59.56
-49.66
-38.32
-26.57
-15.18
-4.57
5.07
13.69
21.30
27.91
33.54
38.20
41.90
44.61
46.33
47.13
47.15
46.62
45.74
44.68
43.57
42.47
41.52
40.83
40.43
40.16
39.65
38.48
36.34
33.20
29.39
25.36
21.52
17.94
14.40
10.51
5.94
0.62
-5.17
-10.97
-16.31
-20.93
-24.94
-28.66
-32.62
-37.25
-42.84
-49.35
-56.43
-63.38
-69.22
-72.88
-73.40
-70.26
-63.49
-53.77
-42.20
-30.00
-18.19
-7.39
2.12
10.40
17.60
23.85
29.24
33.78
37.46
40.24
42.10
43.04
43.13
42.52
41.41
40.08
38.79
37.79
37.18
36.97
36.98
36.92
36.44
35.23
33.11
30.11
26.47
22.55
18.70
15.15
11.86
8.58
4.97
0.78
-4.06
-9.38
-14.84
-20.12
-24.97
-29.38
-33.50
-37.64
-42.14
-47.19
-52.70
-58.20
-62.84
-65.56
-65.41
-61.80
-54.77
-44.98
-33.56
-21.73
-10.59
-0.80
7.40
14.10
19.59
24.14
27.90
30.90
33.08
34.40
34.93
34.85
34.41
33.87
33.34
32.88
32.43
31.93
31.38
30.77
30.08
29.17
27.88
25.99
23.41
20.20
16.54
12.64
8.68
4.72
0.74
-3.28
-7.37
-11.50
-15.61
-19.65
-23.66
-27.78
-32.27
-37.38
-43.24
-49.60
-55.74
-60.55
-62.84
-61.70
-56.90
-48.94
-38.91
-28.10
-17.57
-7.96
0.53
8.01
14.65
20.53
25.58
29.64
32.57
34.27
34.86
34.55
33.66
32.49
31.31
30.26
29.42
28.82
28.42
28.12
27.73
27.05
25.88
24.14
21.86
19.18
16.18
12.88
9.23
5.17
0.69
-4.08
-8.98
-13.78
-18.37
-22.67
-26.77
-30.80
-35.01
-39.69
-45.04
-51.05
-57.39
-63.35
-67.91
-70.01
-68.85
-64.14
-56.24
-46.00
-34.60
-23.17
-12.54
-3.14
5.00
12.09
18.38
24.01
29.00
33.23
36.56
38.91
40.27
40.74
40.49
39.75
38.77
37.81
37.04
36.53
36.19
35.82
35.20
34.09
32.42
30.19
27.51
24.51
21.33
18.06
14.74
11.34
7.73
3.76
-0.67
-5.52
-10.59
-15.60
-20.29
-24.51
-28.33
-32.01
-35.88
-40.35
-45.66
-51.81
-58.43
-64.67
-69.38
-71.39
-69.85
-64.56
-56.06
-45.39
-33.77
-22.24
-11.48
-1.86
6.55
13.76
19.84
24.85
28.89
32.04
34.36
35.91
36.78
37.07
36.91
36.44
35.79
35.08
34.41
33.89
33.58
33.43
33.27
32.82
31.77
29.92
27.21
23.80
20.00
16.17
12.55
9.19
5.93
2.51
-1.29
-5.57
-10.21
-14.93
-19.40
-23.44
-27.06
-30.53
-34.25
-38.68
-44.04
-50.27
-56.89
-62.99
-67.46
-69.18
-67.43
-62.09
-53.72
-43.39
-32.33
-21.61
-11.90
-3.44
3.80
9.98
15.25
19.69
23.33
26.19
28.27
29.60
30.28
30.46
30.30
30.02
29.70
29.40
29.07
28.66
28.16
27.54
26.79
25.82
24.54
22.88
20.77
18.19
15.11
11.50
7.41
2.99
-1.52
-5.85
-9.81
-13.44
-16.92
-20.57
-24.67
-29.44
-34.96
-41.13
-47.66
-53.86
-58.77
-61.23
-60.27
-55.50
-47.35
-36.95
-25.77
-15.09
-5.65
2.42
9.40
15.62
21.19
25.96
29.64
31.99
32.94
32.67
31.55
30.08
28.71
27.74
27.28
27.15
27.08
26.73
25.90
24.57
22.84
20.83
18.59
16.08
13.15
9.71
5.71
1.19
-3.70
-8.75
-13.77
-18.57
-23.14
-27.56
-32.08
-37.01
-42.61
-49.02
-56.12
-63.46
-70.28
-75.52
-78.09
-77.14
-72.34
-64.06
-53.26
-41.25
-29.26
-18.13
-8.19
0.62
8.59
15.94
22.73
28.83
34.02
38.03
40.72
42.08
42.32
41.78
40.88
39.99
39.34
38.93
38.61
38.15
37.35
36.09
34.39
32.24
29.67
26.64
23.15
19.24
15.00
10.49
5.71
0.59
-4.94
-10.85
-16.92
-22.86
-28.39
-33.49
-38.46
-43.82
-50.13
-57.58
-65.79
-73.74
-80.00
-83.16
-82.21
-76.90
-67.73
-55.77
-42.32
-28.56
-15.38
-3.29
7.54
17.13
25.60
33.06
39.52
44.92
49.17
52.19
54.04
54.87
54.91
54.36
53.43
52.30
51.15
50.17
49.49
49.06
48.68
47.98
46.57
44.22
40.91
36.85
32.36
27.76
23.19
18.60
13.82
8.68
3.10
-2.79
-8.73
-14.42
-19.69
-24.60
-29.42
-34.64
-40.73
-48.00
-56.36
-65.25
-73.63
-80.12
-83.40
-82.48
-77.09
-67.79
-55.74
-42.38
-28.97
-16.33
-4.74
5.88
15.70
24.84
33.19
40.53
46.60
51.19
54.27
55.95
56.53
56.37
55.84
55.19
54.55
53.89
53.20
52.47
51.78
51.19
50.64
49.87
48.51
46.20
42.83
38.56
33.82
29.07
24.61
20.44
16.35
11.98
7.12
1.73
-3.97
-9.65
-14.96
-19.76
-24.12
-28.37
-32.93
-38.23
-44.50
-51.73
-59.47
-66.91
-72.92
-76.30
-76.05
-71.64
-63.20
-51.52
-37.83
-23.47
-9.60
3.02
14.04
23.40
31.20
37.50
42.33
45.67
47.58
48.23
47.97
47.24
46.41
45.70
45.16
44.68
44.19
43.64
43.07
42.50
41.88
41.01
39.60
37.41
34.40
30.68
26.57
22.36
18.21
14.09
9.83
5.22
0.16
-5.24
-10.78
-16.18
-21.27
-26.05
-30.70
-35.52
-40.84
-46.92
-53.86
-61.56
-69.52
-76.86
-82.37
-84.78
-83.13
-77.13
-67.27
-54.72
-40.94
-27.20
-14.36
-2.73
7.72
17.12
25.54
32.92
39.15
44.17
48.05
50.91
52.97
54.33
55.09
55.26
54.92
54.17
53.23
52.28
51.48
50.82
50.16
49.24
47.83
45.75
42.98
39.58
35.73
31.60
27.34
23.07
18.83
14.63
10.45
6.22
1.84
-2.78
-7.76
-13.08
-18.69
-24.36
-29.80
-34.73
-39.00
-42.73
-46.29
-50.25
-55.15
-61.30
-68.48
-75.91
-82.34
-86.30
-86.57
-82.57
-74.52
-63.38
-50.49
-37.15
-24.33
-12.60
-2.14
7.06
15.09
22.10
28.31
33.87
38.85
43.11
46.40
48.51
49.42
49.37
48.81
48.19
47.80
47.73
47.83
47.94
47.89
47.56
46.86
45.72
44.05
41.75
38.80
35.23
31.18
26.84
22.44
18.19
14.21
10.50
6.97
3.48
-0.15
-3.98
-8.06
-12.33
-16.74
-21.18
-25.59
-29.88
-34.03
-38.07
-42.15
-46.51
-51.45
-57.13
-63.45
-69.86
-75.32
-78.57
-78.42
-74.23
-66.18
-55.20
-42.73
-30.15
-18.44
-8.02
1.13
9.21
16.38
22.66
28.01
32.32
35.59
37.84
39.14
39.61
39.40
38.70
37.71
36.58
35.46
34.47
33.72
33.30
33.17
33.12
32.77
31.76
29.82
27.01
23.62
20.12
16.90
14.11
11.62
9.09
6.15
2.53
-1.78
-6.56
-11.46
-16.13
-20.32
-23.95
-27.15
-30.25
-33.67
-37.82
-42.89
-48.72
-54.66
-59.68
-62.57
-62.27
-58.30
-50.84
-40.76
-29.31
-17.79
-7.17
2.03
9.71
15.99
21.05
25.02
27.95
29.85
30.79
30.87
30.28
29.24
27.95
26.58
25.23
23.99
22.86
21.86
20.99
20.21
19.41
18.43
17.05
15.11
12.59
9.60
6.29
2.77
-0.99
-5.04
-9.44
-14.06
-18.68
-23.03
-26.97
-30.53
-33.95
-37.50
-41.49
-46.08
-51.30
-56.94
-62.44
-66.90
-69.19
-68.33
-63.79
-55.79
-45.25
-33.53
-21.92
-11.36
-2.20
5.60
12.33
18.21
23.29
27.53
30.79
33.02
34.22
34.49
33.97
32.81
31.18
29.27
27.33
25.61
24.34
23.63
23.36
23.26
22.93
22.03
20.33
17.81
14.62
10.97
7.08
3.10
-0.89
-4.89
-8.87
-12.84
-16.76
-20.61
-24.39
-28.16
-32.10
-36.54
-41.77
-48.00
-55.06
-62.34
-68.78
-73.10
-74.16
-71.33
-64.70
-55.05
-43.62
-31.67
-20.21
-9.78
-0.48
7.78
15.19
21.80
27.57
32.36
36.04
38.52
39.84
40.12
39.61
38.61
37.42
36.32
35.47
34.93
34.61
34.34
33.90
33.06
31.66
29.64
27.01
23.92
20.55
17.09
13.58
10.00
6.18
1.99
-2.65
-7.63
-12.73
-17.70
-22.37
-26.75
-31.04
-35.61
-40.79
-46.78
-53.46
-60.33
-66.46
-70.64
-71.74
-69.04
-62.55
-53.03
-41.76
-30.06
-18.92
-8.79
0.31
8.56
16.08
22.83
28.63
33.30
36.80
39.23
40.79
41.71
42.17
42.30
42.17
41.82
41.34
40.84
40.40
40.03
39.64
39.03
37.96
36.28
33.93
30.97
27.59
23.97
20.26
16.51
12.69
8.73
4.51
-0.05
-4.95
-10.09
-15.22
-20.08
-24.49
-28.47
-32.33
-36.57
-41.71
-47.98
-55.08
-62.15
-67.85
-70.84
-70.10
-65.34
-57.05
-46.32
-34.46
-22.69
-11.84
-2.28
5.95
13.04
19.17
24.45
28.93
32.56
35.34
37.27
38.44
38.95
38.90
38.40
37.54
36.51
35.53
34.78
34.28
33.93
33.46
32.56
31.09
29.04
26.56
23.79
20.77
17.44
13.71
9.57
5.10
0.43
-4.31
-9.08
-13.89
-18.71
-23.55
-28.45
-33.54
-39.07
-45.24
-51.94
-58.62
-64.17
-67.27
-66.79
-62.22
-53.94
-43.04
-31.00
-19.16
-8.40
0.90
8.80
15.55
21.37
26.40
30.68
34.16
36.82
38.65
39.70
40.12
40.06
39.70
39.16
38.56
37.91
37.29
36.71
36.17
35.51
34.51
32.91
30.51
27.35
23.58
19.48
15.20
10.81
6.23
1.39
-3.74
-9.09
-14.49
-19.74
-24.71
-29.40
-33.94
-38.63
-43.81
-49.79
-56.60
-63.88
-70.82
-76.20
-78.78
-77.58
-72.25
-63.21
-51.53
-38.64
-25.84
-14.03
-3.51
5.85
14.31
22.03
28.93
34.82
39.56
43.20
45.91
47.99
49.57
50.69
51.30
51.36
50.95
50.21
49.36
48.56
47.88
47.33
46.77
45.96
44.61
42.44
39.29
35.30
30.82
26.30
22.13
18.39
14.83
11.02
6.55
1.27
-4.64
-10.74
-16.51
-21.66
-26.18
-30.34
-34.56
-39.21
-44.53
-50.67
-57.64
-65.27
-73.05
-80.07
-85.05
-86.67
-84.00
-76.91
-66.14
-53.14
-39.51
-26.51
-14.81
-4.43
4.91
13.54
21.61
29.02
35.54
40.97
45.18
48.19
50.10
51.07
51.26
50.85
50.05
49.09
48.21
47.59
47.26
47.12
46.95
46.47
45.45
43.71
41.23
38.08
34.47
30.65
26.88
23.32
19.94
16.56
12.89
8.64
3.75
-1.66
-7.24
-12.63
-17.59
-22.12
-26.43
-30.83
-35.66
-41.18
-47.55
-54.76
-62.55
-70.27
-76.96
-81.38
-82.43
-79.42
-72.40
-62.13
-49.85
-36.91
-24.37
-12.87
-2.60
6.50
14.59
21.76
28.05
33.38
37.69
40.94
43.17
44.49
45.07
45.11
44.75
44.14
43.37
42.56
41.82
41.23
40.76
40.27
39.48
38.11
35.98
33.09
29.64
25.94
22.27
18.75
15.34
11.82
7.95
3.52
-1.48
-6.85
-12.26
-17.32
-21.77
-25.61
-29.09
-32.68
-36.94
-42.24
-48.58
-55.39
-61.62
-65.94
-67.09
-64.35
-57.75
-48.04
-36.52
-24.55
-13.25
-3.25
5.28
12.47
18.51
23.53
27.53
30.47
32.35
33.30
33.53
33.34
32.96
32.56
32.15
31.78
31.38
30.91
30.32
29.52
28.41
26.91
25.02
22.80
20.37
17.81
15.12
12.24
9.01
5.31
1.11
-3.46
-8.21
-12.91
-17.42
-21.74
-26.02
-30.52
-35.53
-41.27
-47.84
-55.07
-62.48
-69.20
-74.07
-75.85
-73.70
-67.35
-57.43
-45.16
-32.08
-19.57
-8.46
0.99
8.98
15.92
22.10
27.63
32.43
36.36
39.30
41.22
42.19
42.31
41.75
40.73
39.51
38.38
37.56
37.13
36.97
36.79
36.23
34.99
32.94
30.14
26.80
23.19
19.54
15.98
12.48
8.81
4.71
-0.04
-5.46
-11.31
-17.20
-22.71
-27.65
-32.09
-36.40
-41.11
-46.67
-53.25
-60.66
-68.21
-74.83
-79.18
-80.04
-76.65
-69.04
-58.03
-45.06
-31.68
-19.19
-8.24
1.11
9.18
16.40
23.00
28.97
34.11
38.23
41.24
43.24
44.41
44.93
44.91
44.42
43.57
42.50
41.49
40.73
40.28
39.98
39.47
38.35
36.38
33.61
30.28
26.74
23.22
19.71
16.02
11.88
7.14
1.85
-3.76
-9.37
-14.70
-19.64
-24.24
-28.71
-33.35
-38.47
-44.38
-51.17
-58.60
-65.99
-72.21
-75.92
-75.99
-71.85
-63.78
-52.78
-40.31
-27.76
-16.07
-5.65
3.58
11.85
19.34
26.03
31.74
36.31
39.71
42.09
43.66
44.59
44.92
44.60
43.64
42.23
40.73
39.55
38.94
38.77
38.65
38.07
36.67
34.42
31.58
28.49
25.37
22.18
18.73
14.80
10.33
5.49
0.50
-4.40
-9.12
-13.69
-18.21
-22.76
-27.45
-32.44
-37.91
-44.02
-50.72
-57.61
-63.84
-68.28
-69.80
-67.62
-61.64
-52.43
-41.13
-29.06
-17.37
-6.81
2.33
10.17
17.01
23.09
28.54
33.23
36.93
39.42
40.61
40.64
39.81
38.57
37.39
36.56
36.19
36.17
36.20
35.95
35.19
33.81
31.87
29.53
26.93
24.12
21.06
17.68
13.92
9.91
5.75
1.59
-2.48
-6.50
-10.56
-14.74
-19.11
-23.78
-28.89
-34.64
-41.11
-48.14
-55.14
-61.11
-64.80
-65.15
-61.63
-54.45
-44.53
-33.15
-21.57
-10.70
-0.97
7.59
15.09
21.59
27.04
31.30
34.30
36.09
36.94
37.19
37.17
37.04
36.80
36.38
35.71
34.84
33.95
33.18
32.57
31.95
30.99
29.37
26.94
23.78
20.19
16.49
12.89
9.35
5.66
1.59
-2.97
-7.98
-13.20
-18.39
-23.34
-28.08
-32.82
-37.92
-43.76
-50.56
-58.14
-65.85
-72.59
-77.01
-77.94
-74.71
-67.46
-57.03
-44.73
-31.91
-19.61
-8.45
1.42
10.09
17.73
24.49
30.44
35.59
39.93
43.43
46.03
47.67
48.30
47.96
46.80
45.16
43.42
41.96
41.01
40.54
40.33
39.96
39.07
37.37
34.85
31.62
27.94
24.04
20.12
16.26
12.41
8.45
4.19
-0.56
-5.85
-11.55
-17.38
-22.99
-28.11
-32.73
-37.12
-41.80
-47.22
-53.58
-60.58
-67.36
-72.69
-75.28
-74.15
-69.01
-60.35
-49.24
-37.03
-24.88
-13.54
-3.27
6.03
14.52
22.27
29.16
35.00
39.62
43.00
45.24
46.55
47.14
47.19
46.79
46.00
44.88
43.53
42.09
40.75
39.65
38.79
37.99
36.97
35.34
32.88
29.54
25.56
21.35
17.31
13.71
10.51
7.46
4.20
0.43
-3.92
-8.68
-13.54
-18.20
-22.45
-26.28
-29.89
-33.55
-37.62
-42.37
-47.98
-54.33
-60.90
-66.77
-70.69
-71.52
-68.49
-61.64
-51.76
-40.16
-28.20
-16.89
-6.71
2.30
10.26
17.25
23.18
27.97
31.61
34.27
36.23
37.74
38.87
39.56
39.67
39.09
37.92
36.38
34.82
33.53
32.68
32.22
31.87
31.28
30.08
28.14
25.52
22.51
19.39
16.33
13.30
10.09
6.49
2.39
-2.05
-6.56
-10.80
-14.57
-17.90
-21.02
-24.23
-27.86
-32.11
-37.07
-42.62
-48.42
-53.77
-57.71
-59.18
-57.31
-51.81
-43.12
-32.33
-20.84
-9.93
-0.39
7.51
13.94
19.18
23.43
26.73
29.04
30.31
30.61
30.14
29.18
28.04
26.97
26.15
25.66
25.50
25.63
25.87
26.01
25.76
24.85
23.16
20.76
17.91
14.97
12.22
9.71
7.26
4.54
1.24
-2.78
-7.41
-12.36
-17.25
-21.78
-25.83
-29.47
-33.02
-36.93
-41.62
-47.27
-53.63
-59.94
-65.09
-67.84
-67.22
-62.86
-55.08
-44.83
-33.37
-21.93
-11.40
-2.22
5.56
12.11
17.61
22.17
25.80
28.54
30.45
31.71
32.52
33.02
33.24
33.14
32.67
31.86
30.82
29.72
28.71
27.78
26.78
25.47
23.60
21.06
17.95
14.54
11.10
7.84
4.73
1.55
-1.95
-5.96
-10.47
-15.30
-20.14
-24.72
-28.87
-32.62
-36.23
-40.07
-44.58
-49.99
-56.15
-62.39
-67.57
-70.39
-69.79
-65.36
-57.47
-47.12
-35.57
-24.00
-13.23
-3.67
4.55
11.49
17.28
22.14
26.30
29.93
33.05
35.51
37.09
37.63
37.19
36.07
34.67
33.37
32.38
31.69
31.18
30.70
30.06
29.09
27.58
25.39
22.53
19.21
15.76
12.43
9.24
5.93
2.15
-2.33
-7.43
-12.78
-17.93
-22.53
-26.60
-30.42
-34.39
-38.93
-44.29
-50.43
-57.00
-63.28
-68.22
-70.69
-69.78
-65.11
-57.03
-46.49
-34.78
-23.16
-12.54
-3.32
4.49
11.13
16.94
22.14
26.79
30.81
33.96
36.04
36.92
36.66
35.51
33.87
32.18
30.80
29.96
29.65
29.65
29.66
29.33
28.42
26.85
24.72
22.22
19.52
16.70
13.69
10.33
6.50
2.17
-2.55
-7.45
-12.38
-17.22
-21.99
-26.79
-31.80
-37.19
-43.05
-49.20
-55.13
-59.95
-62.56
-62.03
-57.86
-50.28
-40.16
-28.73
-17.27
-6.68
2.56
10.38
16.91
22.27
26.54
29.64
31.53
32.27
32.11
31.36
30.38
29.45
28.68
28.13
27.75
27.51
27.34
27.13
26.74
26.03
24.90
23.24
21.03
18.20
14.70
10.58
6.01
1.28
-3.33
-7.64
-11.76
-15.93
-20.47
-25.67
-31.63
-38.35
-45.61
-52.99
-59.74
-64.89
-67.36
-66.31
-61.41
-53.03
-42.21
-30.30
-18.60
-8.00
1.14
8.91
15.63
21.57
26.80
31.16
34.41
36.40
37.19
37.10
36.49
35.72
34.98
34.27
33.50
32.62
31.61
30.52
29.37
28.09
26.55
24.53
21.85
18.44
14.35
9.75
4.85
-0.14
-5.07
-9.91
-14.65
-19.40
-24.30
-29.60
-35.54
-42.28
-49.79
-57.67
-65.15
-71.16
-74.52
-74.32
-70.18
-62.41
-51.90
-39.86
-27.44
-15.49
-4.37
5.81
15.14
23.63
31.20
37.66
42.84
46.63
49.08
50.30
50.50
49.88
48.66
47.06
45.29
43.56
41.98
40.58
39.28
37.95
36.42
34.61
32.47
29.94
26.99
23.48
19.32
14.52
9.18
3.56
-2.10
-7.62
-12.97
-18.27
-23.70
-29.43
-35.67
-42.52
-49.93
-57.59
-64.86
-70.71
-74.01
-73.80
-69.65
-61.81
-51.14
-38.85
-26.12
-13.83
-2.46
7.85
17.13
25.44
32.77
39.03
44.11
47.90
50.39
51.64
51.80
51.13
49.89
48.37
46.77
45.25
43.94
42.84
41.90
40.96
39.78
38.17
36.00
33.32
30.30
27.13
23.96
20.76
17.35
13.52
9.12
4.21
-1.05
-6.41
-11.70
-16.92
-22.20
-27.77
-33.87
-40.69
-48.20
-56.09
-63.70
-69.98
-73.75
-73.91
-69.92
-61.99
-51.06
-38.49
-25.68
-13.66
-2.86
6.72
15.31
23.08
29.99
35.82
40.30
43.25
44.73
45.06
44.66
43.95
43.24
42.67
42.21
41.78
41.30
40.72
39.95
38.88
37.38
35.37
32.87
29.93
26.60
22.88
18.71
14.05
9.01
3.78
-1.35
-6.21
-10.72
-15.03
-19.37
-24.01
-29.21
-35.13
-41.76
-48.85
-55.73
-61.36
-64.48
-64.07
-59.65
-51.53
-40.73
-28.63
-16.50
-5.21
4.87
13.75
21.55
28.32
33.95
38.20
40.93
42.15
42.12
41.27
40.07
38.92
38.00
37.36
36.91
36.53
36.11
35.55
34.78
33.62
31.91
29.49
26.30
22.39
17.90
13.01
7.84
2.50
-2.90
-8.21
-13.30
-18.08
-22.64
-27.24
-32.24
-37.97
-44.59
-51.99
-59.79
-67.33
-73.69
-77.82
-78.70
-75.62
-68.51
-58.02
-45.39
-32.07
-19.24
-7.57
2.83
12.16
20.63
28.31
35.05
40.69
45.09
48.22
50.14
50.95
50.77
49.82
48.37
46.76
45.34
44.35
43.81
43.58
43.32
42.65
41.26
38.98
35.81
31.95
27.70
23.38
19.20
15.22
11.26
7.05
2.34
-2.97
-8.70
-14.48
-19.87
-24.61
-28.75
-32.67
-37.02
-42.36
-49.03
-56.83
-65.04
-72.48
-77.78
-79.78
-77.78
-71.83
-62.56
-51.06
-38.51
-25.91
-13.92
-2.86
7.15
16.09
23.89
30.52
35.90
40.05
43.04
45.01
46.07
46.38
46.03
45.17
43.93
42.50
41.07
39.81
38.83
38.11
37.47
36.65
35.31
33.23
30.36
26.84
22.99
19.13
15.46
11.94
8.37
4.45
0.04
-4.83
-9.94
-14.95
-19.62
-23.88
-27.89
-31.97
-36.48
-41.68
-47.65
-54.25
-61.00
-67.16
-71.69
-73.56
-71.95
-66.58
-57.81
-46.57
-34.11
-21.65
-10.11
0.06
8.77
16.15
22.36
27.51
31.59
34.57
36.44
37.30
37.31
36.70
35.67
34.40
33.11
32.00
31.28
31.02
31.10
31.24
31.04
30.15
28.44
26.02
23.22
20.36
17.64
15.04
12.33
9.21
5.47
1.05
-3.88
-9.05
-14.12
-18.90
-23.32
-27.47
-31.57
-35.82
-40.40
-45.36
-50.51
-55.35
-59.06
-60.69
-59.36
-54.70
-46.89
-36.74
-25.42
-14.12
-3.76
5.15
12.49
18.34
22.90
26.27
28.54
29.75
29.96
29.35
28.17
26.74
25.34
24.17
23.28
22.59
21.96
21.28
20.50
19.62
18.68
17.67
16.49
14.98
12.92
10.12
6.55
2.29
-2.36
-7.10
-11.65
-15.87
-19.82
-23.72
-27.86
-32.50
-37.81
-43.77
-50.08
-56.14
-61.09
-63.88
-63.63
-59.89
-52.85
-43.33
-32.52
-21.63
-11.55
-2.72
4.80
11.14
16.45
20.75
23.97
26.04
27.03
27.12
26.62
25.85
25.07
24.42
23.87
23.32
22.62
21.68
20.50
19.16
17.74
16.22
14.47
12.31
9.53
6.00
1.78
-2.90
-7.75
-12.47
-16.89
-21.01
-25.00
-29.17
-33.83
-39.24
-45.44
-52.21
-58.95
-64.80
-68.73
-69.82
-67.50
-61.73
-53.06
-42.44
-31.01
-19.71
-9.22
0.19
8.47
15.67
21.81
26.85
30.73
33.48
35.25
36.28
36.82
36.99
36.77
36.15
35.11
33.80
32.40
31.09
29.90
28.68
27.20
25.24
22.69
19.58
16.03
12.11
7.82
3.14
-1.91
-7.21
-12.59
-17.85
-22.92
-27.94
-33.24
-39.15
-45.82
-53.06
-60.19
-66.17
-69.87
-70.39
-67.34
-60.96
-52.00
-41.46
-30.31
-19.21
-8.55
1.51
10.88
19.38
26.72
32.63
36.89
39.52
40.69
40.79
40.21
39.30
38.28
37.25
36.20
35.12
34.00
32.87
31.76
30.64
29.35
27.64
25.25
21.98
17.83
12.95
7.65
2.29
-2.81
-7.50
-11.85
-16.06
-20.44
-25.33
-30.95
-37.44
-44.71
-52.36
-59.64
-65.52
-68.83
-68.59
-64.35
-56.40
-45.67
-33.46
-21.02
-9.27
1.37
10.84
19.20
26.50
32.70
37.63
41.20
43.38
44.29
44.15
43.30
42.03
40.61
39.18
37.76
36.36
34.96
33.55
32.13
30.64
28.92
26.75
23.95
20.46
16.40
11.99
7.45
2.92
-1.57
-6.08
-10.69
-15.51
-20.67
-26.38
-32.77
-39.81
-47.10
-53.85
-58.97
-61.38
-60.33
-55.67
-47.88
-37.91
-26.84
-15.58
-4.71
5.50
14.90
23.32
30.40
35.75
39.10
40.52
40.39
39.34
38.00
36.77
35.76
34.86
33.92
32.87
31.73
30.58
29.43
28.18
26.63
24.58
21.84
18.37
14.18
9.42
4.30
-0.86
-5.81
-10.38
-14.64
-18.90
-23.62
-29.26
-36.01
-43.72
-51.76
-59.15
-64.78
-67.62
-67.02
-62.81
-55.35
-45.40
-33.92
-21.83
-9.87
1.53
12.10
21.72
30.24
37.42
42.99
46.72
48.61
48.89
48.05
46.69
45.31
44.15
43.21
42.25
41.06
39.53
37.75
35.87
33.98
31.98
29.61
26.56
22.64
17.85
12.40
6.60
0.75
-4.98
-10.57
-16.08
-21.59
-27.22
-33.08
-39.36
-46.26
-53.86
-61.91
-69.72
-76.11
-79.74
-79.53
-75.00
-66.50
-55.05
-41.99
-28.54
-15.55
-3.37
7.95
18.50
28.28
37.10
44.66
50.64
54.83
57.26
58.17
57.89
56.79
55.18
53.32
51.42
49.72
48.37
47.37
46.52
45.47
43.86
41.47
38.32
34.62
30.65
26.59
22.49
18.22
13.58
8.40
2.67
-3.46
-9.70
-15.79
-21.60
-27.23
-33.02
-39.35
-46.47
-54.30
-62.39
-69.91
-75.80
-79.00
-78.70
-74.49
-66.54
-55.56
-42.64
-28.92
-15.38
-2.64
9.01
19.48
28.76
36.79
43.48
48.76
52.63
55.14
56.44
56.71
56.14
54.93
53.31
51.53
49.80
48.29
47.08
46.11
45.23
44.15
42.56
40.25
37.12
33.31
29.08
24.81
20.76
17.02
13.45
9.72
5.47
0.51
-5.10
-11.08
-17.00
-22.51
-27.44
-31.90
-36.22
-40.85
-46.22
-52.54
-59.70
-67.04
-73.46
-77.57
-78.16
-74.57
-66.95
-56.24
-43.76
-30.83
-18.37
-6.88
3.51
12.79
20.92
27.82
33.39
37.60
40.53
42.37
43.34
43.63
43.38
42.68
41.60
40.29
38.95
37.85
37.15
36.83
36.61
36.14
35.03
33.16
30.62
27.66
24.53
21.31
17.93
14.23
10.10
5.52
0.63
-4.40
-9.41
-14.28
-18.98
-23.51
-28.00
-32.63
-37.60
-43.06
-48.91
-54.72
-59.68
-62.75
-62.96
-59.70
-53.00
-43.50
-32.29
-20.58
-9.37
0.74
9.59
17.27
23.88
29.41
33.68
36.49
37.75
37.61
36.44
34.72
32.89
31.28
30.02
29.13
28.52
28.06
27.55
26.77
25.53
23.74
21.41
18.61
15.48
12.07
8.40
4.42
0.11
-4.44
-9.06
-13.58
-17.86
-21.90
-25.84
-29.89
-34.34
-39.35
-45.03
-51.25
-57.62
-63.42
-67.63
-69.17
-67.19
-61.39
-52.21
-40.75
-28.39
-16.44
-5.73
3.48
11.30
18.02
23.80
28.67
32.53
35.29
36.94
37.63
37.57
36.96
35.98
34.74
33.36
32.00
30.80
29.89
29.26
28.74
28.05
26.89
25.07
22.61
19.68
16.50
13.23
9.85
6.24
2.26
-2.14
-6.85
-11.67
-16.41
-20.98
-25.39
-29.81
-34.44
-39.53
-45.21
-51.47
-58.00
-64.15
-68.99
-71.48
-70.74
-66.39
-58.63
-48.30
-36.52
-24.43
-12.93
-2.52
6.62
14.47
21.08
26.46
30.63
33.60
35.47
36.37
36.46
35.91
34.89
33.61
32.31
31.22
30.50
30.17
30.09
29.98
29.52
28.46
26.72
24.39
21.71
18.90
16.07
13.13
9.86
6.04
1.57
-3.42
-8.65
-13.73
-18.43
-22.68
-26.63
-30.59
-34.97
-40.07
-46.04
-52.70
-59.47
-65.38
-69.21
-69.82
-66.49
-59.24
-48.87
-36.72
-24.25
-12.63
-2.51
6.05
13.27
19.49
24.87
29.37
32.86
35.20
36.40
36.64
36.19
35.33
34.26
33.07
31.77
30.36
28.93
27.58
26.44
25.50
24.61
23.46
21.78
19.46
16.62
13.55
10.52
7.64
4.75
1.57
-2.16
-6.51
-11.30
-16.19
-20.85
-25.12
-29.08
-33.04
-37.39
-42.44
-48.21
-54.32
-59.93
-63.94
-65.24
-63.10
-57.37
-48.58
-37.70
-25.97
-14.47
-4.02
4.91
12.22
17.98
22.43
25.75
28.09
29.50
30.00
29.69
28.77
27.54
26.30
25.28
24.55
24.10
23.86
23.72
23.56
23.22
22.46
21.12
19.10
16.45
13.29
9.81
6.15
2.42
-1.29
-4.92
-8.39
-11.69
-14.91
-18.30
-22.20
-26.92
-32.57
-38.97
-45.55
-51.46
-55.71
-57.37
-55.84
-51.00
-43.27
-33.49
-22.70
-11.98
-2.15
6.38
13.49
19.31
23.97
27.49
29.79
30.80
30.60
29.50
27.93
26.34
24.99
23.90
22.91
21.83
20.55
19.10
17.62
16.28
15.11
13.94
12.49
10.40
7.37
3.35
-1.52
-6.86
-12.25
-17.31
-21.92
-26.13
-30.22
-34.53
-39.39
-44.97
-51.25
-57.83
-64.00
-68.74
-70.96
-69.84
-65.01
-56.77
-45.99
-33.82
-21.46
-9.79
0.69
9.83
17.66
24.25
29.59
33.60
36.26
37.63
37.96
37.58
36.84
35.97
35.04
34.02
32.88
31.61
30.29
29.01
27.77
26.49
25.00
23.09
20.64
17.59
13.98
9.88
5.41
0.69
-4.10
-8.83
-13.40
-17.88
-22.49
-27.57
-33.53
-40.62
-48.78
-57.52
-65.90
-72.69
-76.65
-76.85
-72.95
-65.31
-54.84
-42.76
-30.25
-18.18
-6.99
3.16
12.32
20.50
27.61
33.50
38.05
41.25
43.27
44.36
44.80
44.80
44.44
43.71
42.60
41.18
39.55
37.90
36.37
34.95
33.51
31.79
29.50
26.38
22.32
17.39
11.80
5.92
0.09
-5.46
-10.68
-15.73
-20.87
-26.39
-32.52
-39.37
-46.91
-54.87
-62.69
-69.50
-74.17
-75.66
-73.23
-66.80
-56.96
-44.81
-31.63
-18.57
-6.37
4.64
14.43
23.12
30.75
37.26
42.49
46.28
48.58
49.51
49.34
48.44
47.18
45.83
44.59
43.52
42.61
41.76
40.83
39.63
38.00
35.83
33.06
29.71
25.81
21.40
16.56
11.38
5.96
0.38
-5.28
-11.05
-16.97
-23.16
-29.78
-36.99
-44.85
-53.23
-61.65
-69.18
-74.65
-76.83
-74.90
-68.66
-58.69
-46.13
-32.33
-18.48
-5.45
6.30
16.61
25.40
32.62
38.26
42.27
44.73
45.83
45.88
45.26
44.36
43.44
42.60
41.77
40.80
39.63
38.27
36.89
35.56
34.25
32.69
30.47
27.17
22.64
17.00
10.72
4.33
-1.70
-7.16
-12.15
-17.03
-22.27
-28.29
-35.37
-43.47
-52.22
-60.83
-68.21
-73.10
-74.46
-71.69
-64.86
-54.70
-42.33
-28.98
-15.64
-2.97
8.73
19.31
28.68
36.64
42.93
47.35
49.82
50.51
49.81
48.27
46.45
44.76
43.39
42.33
41.43
40.49
39.35
37.90
36.11
33.90
31.22
27.98
24.14
19.68
14.66
9.22
3.52
-2.30
-8.15
-14.05
-20.07
-26.37
-33.08
-40.37
-48.30
-56.82
-65.54
-73.73
-80.29
-84.01
-83.87
-79.39
-70.80
-58.95
-45.05
-30.32
-15.70
-1.75
11.30
23.33
34.22
43.74
51.58
57.51
61.50
63.74
64.64
64.65
64.11
63.19
61.92
60.30
58.43
56.54
54.82
53.37
52.01
50.39
48.13
44.98
40.99
36.39
31.50
26.51
21.43
16.13
10.46
4.40
-1.94
-8.35
-14.63
-20.68
-26.57
-32.46
-38.66
-45.49
-53.18
-61.70
-70.52
-78.64
-84.68
-87.29
-85.53
-79.22
-68.96
-55.90
-41.35
-26.45
-11.94
1.78
14.53
26.18
36.59
45.63
53.16
59.10
63.44
66.21
67.55
67.71
66.99
65.70
64.11
62.36
60.55
58.74
56.97
55.29
53.67
52.00
50.12
47.80
44.89
41.32
37.15
32.55
27.73
22.92
18.24
13.72
9.18
4.40
-0.88
-6.72
-12.97
-19.30
-25.35
-30.86
-35.85
-40.58
-45.43
-50.83
-57.06
-64.16
-71.82
-79.36
-85.78
-89.91
-90.73
-87.60
-80.48
-69.94
-56.99
-42.83
-28.57
-14.98
-2.45
8.90
19.12
28.25
36.22
42.89
48.09
51.74
53.93
54.87
54.89
54.28
53.27
52.05
50.76
49.55
48.58
47.91
47.50
47.14
46.51
45.25
43.09
39.97
35.98
31.42
26.66
22.05
17.81
14.00
10.45
6.86
2.93
-1.53
-6.45
-11.53
-16.38
-20.73
-24.50
-27.92
-31.36
-35.21
-39.70
-44.85
-50.52
-56.35
-61.85
-66.32
-68.96
-69.00
-65.94
-59.72
-50.80
-40.06
-28.49
-17.00
-6.21
3.56
12.19
19.63
25.85
30.84
34.56
37.03
38.31
38.55
37.96
36.83
35.50
34.28
33.38
32.89
32.70
32.59
32.33
31.72
30.69
29.23
27.39
25.22
22.74
19.93
16.82
13.46
9.88
6.10
2.13
-2.08
-6.56
-11.25
-16.02
-20.71
-25.20
-29.52
-33.85
-38.49
-43.69
-49.48
-55.54
-61.09
-65.07
-66.44
-64.45
-59.00
-50.60
-40.25
-29.13
-18.23
-8.18
0.80
8.72
15.64
21.52
26.22
29.60
31.66
32.64
32.91
32.86
32.73
32.54
32.22
31.64
30.82
29.88
28.97
28.16
27.31
26.16
24.43
22.02
19.04
15.76
12.49
9.37
6.39
3.35
0.04
-3.67
-7.75
-12.03
-16.31
-20.38
-24.18
-27.71
-31.11
-34.56
-38.30
-42.56
-47.44
-52.82
-58.25
-62.91
-65.76
-65.88
-62.72
-56.35
-47.41
-36.95
-26.13
-15.85
-6.64
1.37
8.30
14.32
19.53
23.90
27.35
29.85
31.43
32.18
32.23
31.69
30.67
29.32
27.88
26.64
25.83
25.53
25.57
25.61
25.23
24.14
22.26
19.73
16.84
13.91
11.11
8.45
5.74
2.75
-0.70
-4.64
-8.92
-13.32
-17.62
-21.69
-25.55
-29.33
-33.22
-37.44
-42.17
-47.42
-52.92
-58.05
-61.89
-63.47
-62.03
-57.33
-49.75
-40.11
-29.47
-18.80
-8.81
0.06
7.63
13.90
18.91
22.81
25.74
27.81
29.12
29.76
29.85
29.49
28.80
27.88
26.81
25.70
24.69
23.95
23.57
23.51
23.52
23.18
22.08
20.02
17.09
13.65
10.19
7.10
4.51
2.30
0.12
-2.41
-5.51
-9.18
-13.21
-17.31
-21.21
-24.79
-28.18
-31.66
-35.57
-40.17
-45.46
-51.08
-56.31
-60.17
-61.69
-60.16
-55.40
-47.85
-38.44
-28.34
-18.57
-9.79
-2.20
4.33
10.02
14.99
19.16
22.38
24.56
25.74
26.16
26.11
25.87
25.56
25.22
24.80
24.25
23.62
22.99
22.40
21.84
21.23
20.41
19.20
17.50
15.27
12.56
9.50
6.22
2.87
-0.46
-3.68
-6.76
-9.70
-12.57
-15.50
-18.70
-22.39
-26.74
-31.71
-37.05
-42.18
-46.27
-48.46
-48.05
-44.74
-38.73
-30.65
-21.43
-11.98
-3.05
4.87
11.53
16.87
20.91
23.67
25.28
25.91
25.82
25.28
24.52
23.72
22.96
22.26
21.62
21.06
20.58
20.13
19.63
18.96
17.97
16.57
14.65
12.19
9.19
5.72
1.92
-2.05
-6.01
-9.82
-13.42
-16.90
-20.48
-24.44
-29.09
-34.61
-40.89
-47.53
-53.72
-58.47
-60.78
-60.01
-56.04
-49.34
-40.79
-31.36
-21.87
-12.81
-4.39
3.37
10.40
16.56
21.59
25.33
27.75
29.05
29.56
29.60
29.43
29.15
28.77
28.28
27.68
26.97
26.18
25.29
24.26
23.00
21.39
19.30
16.60
13.19
9.10
4.50
-0.31
-4.99
-9.30
-13.22
-16.89
-20.58
-24.53
-28.92
-33.84
-39.36
-45.44
-51.86
-58.08
-63.22
-66.30
-66.46
-63.33
-57.17
-48.71
-38.87
-28.51
-18.24
-8.46
0.55
8.59
15.54
21.42
26.31
30.36
33.64
36.14
37.81
38.62
38.68
38.23
37.50
36.72
35.97
35.26
34.53
33.73
32.75
31.48
29.80
27.62
24.92
21.78
18.26
14.44
10.35
5.99
1.43
-3.25
-7.89
-12.36
-16.62
-20.77
-25.05
-29.74
-35.13
-41.31
-48.08
-54.87
-60.78
-64.75
-65.87
-63.64
-58.19
-50.13
-40.35
-29.74
-18.94
-8.39
1.71
11.15
19.75
27.33
33.74
38.93
42.93
45.82
47.70
48.69
48.94
48.64
47.96
47.10
46.22
45.45
44.85
44.42
44.05
43.60
42.83
41.58
39.71
37.22
34.17
30.72
27.05
23.32
19.64
16.03
12.46
8.80
4.90
0.73
-3.74
-8.43
-13.21
-17.97
-22.61
-27.13
-31.63
-36.36
-41.62
-47.61
-54.19
-60.74
-66.24
-69.53
-69.67
-66.27
-59.63
-50.54
-40.02
-29.00
-18.15
-7.89
1.60
10.20
17.85
24.53
30.23
34.97
38.73
41.51
43.30
44.21
44.44
44.23
43.83
43.38
42.95
42.57
42.20
41.84
41.41
40.77
39.73
38.10
35.78
32.85
29.59
26.27
23.11
20.16
17.25
14.14
10.64
6.69
2.43
-1.89
-6.00
-9.70
-12.98
-15.97
-18.93
-22.19
-26.02
-30.65
-36.05
-41.98
-47.83
-52.71
-55.63
-55.76
-52.74
-46.77
-38.60
-29.25
-19.64
-10.41
-1.86
5.93
12.90
18.93
23.85
27.56
30.07
31.55
32.23
32.33
32.04
31.54
30.97
30.44
30.05
29.82
29.73
29.70
29.67
29.52
29.10
28.23
26.75
24.62
21.94
18.96
15.93
13.01
10.18
7.25
3.97
0.15
-4.21
-8.92
-13.63
-18.02
-21.86
-25.14
-28.07
-31.02
-34.38
-38.43
-43.23
-48.52
-53.76
-58.15
-60.84
-61.11
-58.54
-53.21
-45.65
-36.68
-27.22
-18.01
-9.51
-1.91
4.84
10.85
16.23
21.04
25.29
28.95
31.94
34.18
35.62
36.31
36.37
35.99
35.39
34.73
34.14
33.68
33.37
33.19
33.06
32.80
32.19
31.00
29.11
26.57
23.60
20.51
17.54
14.79
12.16
9.43
6.34
2.82
-1.08
-5.16
-9.20
-13.03
-16.59
-19.92
-23.15
-26.44
-29.97
-33.97
-38.60
-43.86
-49.51
-55.02
-59.64
-62.57
-63.20
-61.19
-56.59
-49.78
-41.41
-32.22
-22.94
-14.15
-6.22
0.75
6.83
12.17
16.88
20.99
24.43
27.19
29.27
30.83
31.96
32.73
33.15
33.20
32.91
32.40
31.83
31.34
31.00
30.72
30.34
29.62
28.38
26.53
24.13
21.39
18.56
15.88
13.43
11.11
8.75
6.12
3.10
-0.31
-3.99
-7.78
-11.54
-15.14
-18.50
-21.63
-24.58
-27.56
-30.86
-34.76
-39.43
-44.74
-50.20
-54.99
-58.17
-58.95
-56.88
-52.01
-44.86
-36.25
-27.04
-17.98
-9.58
-2.10
4.41
10.00
14.80
18.89
22.29
24.92
26.73
27.70
27.97
27.76
27.34
26.89
26.48
26.05
25.55
25.00
24.45
23.95
23.49
22.98
22.25
21.17
19.69
17.86
15.78
13.54
11.18
8.69
6.00
3.02
-0.28
-3.85
-7.49
-10.92
-13.91
-16.39
-18.55
-20.85
-23.79
-27.75
-32.75
-38.32
-43.64
-47.70
-49.60
-48.75
-45.07
-38.94
-31.12
-22.52
-13.98
-6.10
0.82
6.69
11.50
15.28
18.01
19.71
20.51
20.65
20.40
20.00
19.59
19.24
18.92
18.62
18.34
18.09
17.89
17.68
17.40
16.87
15.96
14.52
12.54
10.08
7.28
4.28
1.18
-2.05
-5.44
-9.07
-12.91
-16.89
-20.87
-24.82
-28.80
-32.97
-37.54
-42.53
-47.70
-52.50
-56.14
-57.79
-56.85
-53.14
-46.91
-38.85
-29.84
-20.74
-12.24
-4.68
1.88
7.57
12.52
16.74
20.11
22.42
23.59
23.74
23.24
22.50
21.91
21.58
21.43
21.23
20.82
20.18
19.44
18.75
18.18
17.61
16.77
15.39
13.27
10.37
6.83
2.87
-1.28
-5.47
-9.63
-13.75
-17.82
-21.84
-25.84
-29.94
-34.43
-39.58
-45.60
-52.35
-59.25
-65.38
-69.65
-71.15
-69.40
-64.50
-57.07
-47.98
-38.15
-28.34
-19.02
-10.40
-2.45
4.91
11.73
17.97
23.46
27.94
31.21
33.14
33.82
33.49
32.54
31.44
30.54
30.04
29.91
29.94
29.82
29.29
28.21
26.56
24.42
21.90
19.04
15.88
12.43
8.68
4.63
0.25
-4.48
-9.56
-14.92
-20.42
-25.91
-31.32
-36.72
-42.31
-48.35
-54.90
-61.63
-67.82
-72.49
-74.62
-73.59
-69.25
-61.97
-52.48
-41.64
-30.28
-19.08
-8.50
1.19
9.92
17.67
24.48
30.30
35.04
38.63
41.12
42.70
43.63
44.18
44.47
44.56
44.44
44.17
43.83
43.43
42.91
42.08
40.74
38.82
36.39
33.58
30.50
27.08
23.13
18.47
13.08
7.11
0.85
-5.38
-11.40
-17.22
-22.98
-28.94
-35.37
-42.43
-50.14
-58.16
-65.74
-71.81
-75.17
-74.84
-70.42
-62.21
-51.15
-38.52
-25.54
-13.09
-1.61
8.79
18.14
26.44
33.61
39.57
44.25
47.71
50.06
51.47
52.10
52.11
51.68
50.98
50.12
49.14
48.00
46.61
44.91
42.93
40.72
38.29
35.61
32.49
28.77
24.37
19.39
14.12
8.88
3.88
-0.90
-5.69
-10.88
-16.81
-23.71
-31.55
-40.07
-48.72
-56.68
-62.93
-66.34
-66.02
-61.52
-53.09
-41.63
-28.43
-14.82
-1.83
9.97
20.41
29.47
37.18
43.41
47.96
50.71
51.72
51.32
50.05
48.48
47.06
45.98
45.16
44.38
43.37
42.00
40.28
38.35
36.30
34.12
31.66
28.61
24.69
19.77
13.93
7.48
0.84
-5.60
-11.63
-17.26
-22.72
-28.41
-34.75
-42.04
-50.29
-59.04
-67.37
-74.04
-77.70
-77.33
-72.53
-63.60
-51.47
-37.42
-22.75
-8.51
4.61
16.29
26.50
35.33
42.84
49.00
53.66
56.69
58.09
58.11
57.23
55.96
54.76
53.80
53.04
52.21
51.08
49.52
47.54
45.23
42.69
39.91
36.78
33.09
28.67
23.43
17.49
11.10
4.63
-1.64
-7.53
-13.11
-18.53
-24.06
-29.93
-36.35
-43.50
-51.42
-59.87
-68.17
-75.19
-79.58
-80.18
-76.42
-68.50
-57.33
-44.14
-30.14
-16.19
-2.80
9.74
21.20
31.35
39.99
47.00
52.43
56.45
59.32
61.24
62.40
62.90
62.81
62.17
61.07
59.65
58.10
56.52
54.92
53.15
50.97
48.15
44.62
40.50
36.04
31.51
27.03
22.55
17.92
12.95
7.58
1.87
-4.02
-9.88
-15.57
-21.08
-26.51
-32.09
-38.16
-44.93
-52.47
-60.46
-68.16
-74.48
-78.21
-78.37
-74.53
-66.94
-56.43
-44.17
-31.32
-18.75
-6.98
3.78
13.46
22.04
29.43
35.59
40.50
44.23
46.93
48.72
49.73
50.04
49.75
48.97
47.87
46.66
45.53
44.64
43.97
43.36
42.48
40.99
38.62
35.37
31.44
27.23
23.09
19.22
15.53
11.80
7.71
3.12
-1.93
-7.20
-12.43
-17.45
-22.26
-27.02
-31.94
-37.28
-43.19
-49.69
-56.57
-63.31
-69.14
-73.07
-74.18
-71.86
-66.03
-57.23
-46.41
-34.73
-23.19
-12.43
-2.71
6.00
13.83
20.81
26.86
31.75
35.29
37.47
38.46
38.60
38.27
37.78
37.30
36.86
36.44
36.03
35.63
35.19
34.61
33.69
32.27
30.25
27.68
24.73
21.57
18.33
14.99
11.48
7.71
3.68
-0.57
-4.92
-9.28
-13.56
-17.74
-21.87
-26.07
-30.57
-35.54
-41.00
-46.62
-51.68
-55.23
-56.29
-54.28
-49.11
-41.27
-31.64
-21.26
-11.02
-1.60
6.68
13.75
19.67
24.59
28.55
31.53
33.47
34.37
34.30
33.51
32.31
30.97
29.69
28.55
27.57
26.72
25.96
25.17
24.20
22.88
21.09
18.88
16.40
13.81
11.16
8.35
5.18
1.50
-2.72
-7.31
-12.01
-16.52
-20.64
-24.30
-27.55
-30.60
-33.78
-37.50
-42.05
-47.45
-53.24
-58.52
-62.13
-63.06
-60.69
-55.08
-46.87
-37.04
-26.64
-16.52
-7.20
1.09
8.31
14.50
19.72
24.03
27.42
29.97
31.72
32.78
33.24
33.23
32.83
32.15
31.31
30.42
29.61
28.93
28.39
27.95
27.54
27.00
26.20
24.97
23.23
21.00
18.43
15.72
13.04
10.45
7.85
5.04
1.83
-1.90
-6.11
-10.62
-15.17
-19.49
-23.43
-26.97
-30.29
-33.69
-37.50
-41.90
-46.83
-51.87
-56.38
-59.54
-60.60
-59.05
-54.78
-48.10
-39.68
-30.41
-21.11
-12.40
-4.60
2.21
8.13
13.25
17.64
21.29
24.17
26.31
27.80
28.80
29.49
30.00
30.31
30.36
30.01
29.19
27.98
26.60
25.34
24.42
23.86
23.44
22.81
21.63
19.74
17.17
14.20
11.18
8.41
6.03
3.91
1.83
-0.51
-3.29
-6.45
-9.83
-13.16
-16.20
-18.89
-21.37
-23.87
-26.73
-30.21
-34.44
-39.30
-44.44
-49.25
-52.97
-54.85
-54.32
-51.19
-45.67
-38.33
-29.95
-21.31
-13.05
-5.53
1.06
6.73
11.51
15.40
18.40
20.52
21.81
22.44
22.60
22.46
22.15
21.69
21.08
20.33
19.55
18.86
18.41
18.24
18.30
18.47
18.52
18.21
17.40
16.06
14.30
12.34
10.43
8.71
7.11
5.41
3.31
0.56
-2.82
-6.66
-10.59
-14.30
-17.58
-20.37
-22.82
-25.20
-27.84
-31.00
-34.76
-38.87
-42.76
-45.65
-46.80
-45.68
-42.17
-36.56
-29.42
-21.49
-13.47
-5.98
0.56
5.91
10.07
13.15
15.38
16.92
17.90
18.36
18.35
17.95
17.29
16.55
15.83
15.22
14.72
14.32
14.05
13.91
13.85
13.77
13.49
12.78
11.48
9.53
7.00
4.05
0.91
-2.26
-5.37
-8.35
-11.18
-13.83
-16.32
-18.74
-21.26
-24.13
-27.60
-31.80
-36.61
-41.64
-46.22
-49.56
-50.87
-49.61
-45.65
-39.25
-31.16
-22.32
-13.70
-6.04
0.27
5.22
9.05
12.09
14.61
16.71
18.38
19.50
19.96
19.74
18.94
17.73
16.36
15.04
13.90
12.99
12.31
11.80
11.39
10.96
10.37
9.50
8.20
6.38
4.01
1.12
-2.17
-5.69
-9.21
-12.54
-15.54
-18.25
-20.85
-23.58
-26.73
-30.46
-34.86
-39.82
-45.12
-50.35
-54.94
-58.19
-59.40
-58.05
-53.99
-47.54
-39.39
-30.45
-21.55
-13.32
-6.03
0.30
5.83
10.78
15.25
19.22
22.49
24.83
26.06
26.22
25.56
24.48
23.38
22.50
21.86
21.37
20.89
20.40
19.93
19.50
19.01
18.31
17.24
15.68
13.64
11.13
8.19
4.78
0.86
-3.53
-8.27
-13.13
-17.85
-22.23
-26.29
-30.19
-34.28
-38.92
-44.32
-50.33
-56.38
-61.52
-64.65
-64.88
-61.83
-55.73
-47.32
-37.62
-27.64
-18.10
-9.41
-1.71
5.02
10.85
15.86
20.10
23.64
26.51
28.76
30.36
31.28
31.55
31.28
30.68
30.01
29.50
29.23
29.14
29.04
28.73
28.06
27.00
25.59
23.92
22.02
19.85
17.29
14.24
10.65
6.53
2.02
-2.69
-7.43
-12.03
-16.44
-20.70
-24.97
-29.48
-34.51
-40.25
-46.69
-53.50
-59.93
-64.94
-67.39
-66.42
-61.75
-53.81
-43.60
-32.34
-21.10
-10.59
-1.09
7.36
14.78
21.07
26.15
29.99
32.74
34.67
36.06
37.09
37.78
38.09
38.03
37.70
37.33
37.08
37.03
37.07
36.96
36.48
35.46
33.90
31.87
29.44
26.61
23.33
19.49
15.11
10.30
5.30
0.37
-4.28
-8.65
-12.91
-17.36
-22.34
-28.09
-34.65
-41.79
-48.96
-55.29
-59.75
-61.29
-59.22
-53.40
-44.37
-33.20
-21.23
-9.67
0.69
9.56
17.07
23.45
28.88
33.31
36.57
38.53
39.26
39.05
38.39
37.74
37.37
37.27
37.20
36.91
36.23
35.21
34.03
32.85
31.67
30.33
28.54
26.09
22.91
19.07
14.73
10.02
5.03
-0.18
-5.54
-10.96
-16.41
-22.01
-27.98
-34.67
-42.26
-50.69
-59.42
-67.49
-73.67
-76.80
-76.05
-71.20
-62.65
-51.34
-38.44
-25.12
-12.29
-0.59
9.71
18.51
25.89
31.98
36.94
40.91
44.00
46.29
47.82
48.70
49.08
49.11
48.96
48.74
48.48
48.13
47.55
46.62
45.25
43.38
40.99
38.09
34.64
30.63
26.08
21.06
15.64
9.95
4.05
-2.00
-8.11
-14.18
-20.05
-25.70
-31.27
-37.12
-43.67
-51.26
-59.80
-68.69
-76.81
-82.77
-85.23
-83.34
-76.98
-66.76
-53.89
-39.77
-25.63
-12.35
-0.32
10.39
19.85
28.19
35.49
41.81
47.18
51.64
55.13
57.59
58.96
59.29
58.81
57.83
56.72
55.79
55.25
55.17
55.42
55.72
55.63
54.71
52.59
49.24
44.88
40.02
35.12
30.48
26.08
21.63
16.79
11.31
5.22
-1.27
-7.80
-14.12
-20.06
-25.68
-31.19
-36.93
-43.31
-50.67
-59.11
-68.28
-77.31
-84.85
-89.44
-89.87
-85.58
-76.87
-64.76
-50.66
-35.99
-21.79
-8.60
3.42
14.35
24.31
33.28
41.12
47.62
52.59
56.04
58.14
59.22
59.60
59.47
58.89
57.84
56.37
54.69
53.13
51.93
51.13
50.43
49.34
47.40
44.40
40.53
36.25
32.04
28.18
24.64
21.07
17.10
12.40
6.92
0.83
-5.53
-11.81
-17.76
-23.31
-28.59
-33.88
-39.55
-45.91
-53.15
-61.11
-69.20
-76.42
-81.45
-82.99
-80.19
-72.95
-61.95
-48.53
-34.22
-20.37
-7.82
3.08
12.41
20.37
27.14
32.78
37.25
40.48
42.46
43.30
43.25
42.69
42.00
41.46
41.21
41.17
41.16
40.99
40.52
39.68
38.44
36.71
34.45
31.61
28.19
24.32
20.09
15.60
10.87
5.88
0.67
-4.63
-9.83
-14.77
-19.44
-24.05
-28.97
-34.60
-41.23
-48.77
-56.68
-63.94
-69.24
-71.34
-69.42
-63.34
-53.78
-41.91
-29.10
-16.52
-4.92
5.35
14.19
21.62
27.61
32.12
35.12
36.72
37.17
36.85
36.15
35.37
34.67
34.08
33.53
32.96
32.34
31.65
30.84
29.82
28.52
26.85
24.77
22.24
19.18
15.50
11.14
6.17
0.81
-4.64
-9.94
-15.03
-19.99
-25.08
-30.56
-36.65
-43.49
-51.10
-59.21
-67.20
-74.01
-78.37
-79.09
-75.50
-67.74
-56.69
-43.70
-30.18
-17.23
-5.50
4.81
13.69
21.31
27.78
33.25
37.81
41.46
44.15
45.81
46.41
46.07
45.02
43.65
42.28
41.12
40.20
39.42
38.56
37.41
35.81
33.69
31.02
27.82
24.18
20.18
15.90
11.35
6.49
1.33
-4.10
-9.66
-15.20
-20.60
-25.85
-31.09
-36.55
-42.50
-49.15
-56.53
-64.36
-71.98
-78.29
-81.99
-81.89
-77.36
-68.59
-56.62
-42.97
-29.15
-16.21
-4.60
5.67
14.82
22.98
30.14
36.21
41.10
44.82
47.47
49.16
50.01
50.13
49.67
48.78
47.72
46.66
45.72
44.83
43.85
42.54
40.67
38.12
34.87
31.09
27.01
22.85
18.69
14.44
9.92
4.93
-0.58
-6.48
-12.49
-18.29
-23.67
-28.63
-33.33
-38.13
-43.43
-49.50
-56.32
-63.42
-69.84
-74.28
-75.47
-72.58
-65.59
-55.25
-42.92
-30.04
-17.76
-6.71
2.97
11.43
18.83
25.29
30.75
35.09
38.22
40.11
40.89
40.84
40.30
39.59
38.92
38.29
37.62
36.78
35.69
34.40
33.02
31.59
30.12
28.47
26.45
23.88
20.66
16.77
12.32
7.49
2.48
-2.48
-7.26
-11.78
-16.08
-20.28
-24.63
-29.42
-34.92
-41.21
-47.98
-54.50
-59.66
-62.20
-61.19
-56.27
-47.88
-37.05
-25.08
-13.19
-2.21
7.47
15.75
22.64
28.15
32.22
34.81
35.99
35.99
35.14
33.85
32.52
31.39
30.57
29.92
29.23
28.25
26.88
25.19
23.32
21.49
19.72
17.93
15.86
13.26
9.96
5.96
1.45
-3.31
-8.06
-12.58
-16.81
-20.81
-24.84
-29.26
-34.44
-40.66
-47.87
-55.56
-62.77
-68.19
-70.49
-68.81
-63.00
-53.71
-42.24
-30.03
-18.24
-7.54
1.92
10.28
17.72
24.25
29.77
34.16
37.35
39.41
40.52
40.83
40.56
39.88
38.98
37.99
37.04
36.19
35.42
34.65
33.74
32.55
30.94
28.82
26.18
23.09
19.63
15.90
11.96
7.84
3.52
-0.98
-5.64
-10.41
-15.22
-20.05
-24.85
-29.71
-34.75
-40.25
-46.49
-53.55
-61.13
-68.41
-74.13
-76.97
-75.93
-70.74
-61.94
-50.67
-38.31
-25.98
-14.41
-3.91
5.53
13.98
21.50
28.05
33.57
38.00
41.30
43.44
44.51
44.62
44.04
43.07
41.99
40.99
40.15
39.42
38.71
37.95
37.03
35.84
34.24
32.13
29.43
26.22
22.69
19.09
15.62
12.29
8.96
5.34
1.15
-3.69
-9.02
-14.47
-19.61
-24.14
-28.08
-31.73
-35.62
-40.30
-46.10
-53.03
-60.57
-67.79
-73.36
-75.97
-74.65
-69.07
-59.74
-47.84
-34.88
-22.26
-10.87
-1.03
7.39
14.72
21.21
26.91
31.65
35.30
37.80
39.29
40.02
40.22
40.01
39.42
38.46
37.24
35.99
35.00
34.50
34.45
34.58
34.46
33.68
31.99
29.36
26.02
22.29
18.50
14.91
11.54
8.26
4.83
0.98
-3.38
-8.16
-13.07
-17.74
-21.95
-25.67
-29.12
-32.70
-36.87
-41.93
-47.86
-54.21
-60.07
-64.25
-65.57
-63.23
-57.14
-47.93
-36.78
-25.02
-13.79
-3.79
4.72
11.79
17.54
22.08
25.42
27.58
28.63
28.80
28.41
27.82
27.34
27.10
27.07
27.09
26.98
26.64
26.03
25.19
24.13
22.86
21.31
19.46
17.30
14.82
12.05
8.98
5.57
1.83
-2.17
-6.28
-10.30
-14.09
-17.64
-21.14
-24.90
-29.29
-34.60
-40.85
-47.70
-54.32
-59.54
-62.14
-61.18
-56.37
-48.15
-37.60
-26.08
-14.86
-4.82
3.65
10.55
16.07
20.43
23.82
26.30
27.93
28.77
28.94
28.65
28.12
27.57
27.08
26.62
26.03
25.19
24.04
22.67
21.22
19.79
18.32
16.64
14.48
11.64
8.06
3.83
-0.87
-5.81
-10.80
-15.70
-20.43
-24.96
-29.34
-33.70
-38.31
-43.44
-49.27
-55.74
-62.36
-68.18
-71.99
-72.60
-69.30
-62.17
-52.03
-40.20
-28.01
-16.45
-6.02
3.19
11.25
18.26
24.19
29.03
32.77
35.45
37.17
38.01
38.07
37.49
36.52
35.41
34.39
33.54
32.81
32.07
31.11
29.75
27.84
25.36
22.42
19.18
15.84
12.43
8.80
4.71
-0.07
-5.52
-11.36
-17.17
-22.55
-27.40
-31.84
-36.22
-40.96
-46.35
-52.53
-59.28
-65.98
-71.61
-74.91
-74.75
-70.54
-62.52
-51.63
-39.26
-26.72
-14.90
-4.19
5.39
13.95
21.55
28.17
33.79
38.43
42.12
44.89
46.75
47.68
47.76
47.21
46.35
45.54
45.01
44.81
44.81
44.75
44.33
43.33
41.62
39.20
36.18
32.74
29.07
25.28
21.38
17.28
12.81
7.82
2.31
-3.56
-9.53
-15.30
-20.72
-25.82
-30.86
-36.26
-42.48
-49.79
-58.03
-66.54
-74.15
-79.42
-81.09
-78.46
-71.61
-61.40
-49.13
-36.11
-23.34
-11.35
-0.30
9.82
19.01
27.19
34.17
39.80
43.98
46.75
48.30
48.89
48.88
48.53
48.04
47.50
46.92
46.34
45.86
45.56
45.42
45.25
44.71
43.42
41.13
37.87
33.95
29.81
25.87
22.29
19.01
15.73
12.05
7.69
2.62
-2.90
-8.48
-13.73
-18.47
-22.76
-26.90
-31.33
-36.41
-42.36
-49.12
-56.32
-63.21
-68.77
-71.86
-71.49
-67.22
-59.28
-48.60
-36.48
-24.28
-12.95
-3.01
5.53
12.85
19.20
24.70
29.30
32.88
35.31
36.55
36.73
36.13
35.13
34.11
33.37
33.04
33.09
33.36
33.61
33.59
33.10
32.01
30.26
27.88
24.93
21.55
17.87
14.01
10.04
5.99
1.81
-2.55
-7.12
-11.83
-16.54
-21.08
-25.37
-29.49
-33.79
-38.66
-44.43
-50.99
-57.73
-63.50
-66.97
-66.98
-63.02
-55.30
-44.75
-32.62
-20.15
-8.28
2.43
11.79
19.78
26.44
31.82
35.95
38.89
40.74
41.64
41.76
41.31
40.47
39.43
38.28
37.09
35.87
34.62
33.33
31.99
30.58
29.06
27.35
25.34
22.97
20.18
16.96
13.26
9.11
4.49
-0.57
-5.94
-11.45
-16.90
-22.16
-27.26
-32.39
-37.86
-44.01
-50.97
-58.53
-66.04
-72.46
-76.54
-77.20
-73.83
-66.56
-56.15
-43.84
-30.91
-18.39
-6.87
3.46
12.64
20.75
27.79
33.66
38.29
41.63
43.80
45.00
45.50
45.52
45.23
44.69
43.91
42.99
42.05
41.27
40.78
40.50
40.17
39.41
37.90
35.46
32.18
28.32
24.21
20.12
16.15
12.29
8.39
4.29
-0.16
-5.02
-10.26
-15.71
-21.11
-26.19
-30.77
-34.92
-38.98
-43.48
-48.92
-55.55
-63.12
-70.80
-77.34
-81.37
-81.78
-78.05
-70.40
-59.70
-47.19
-34.12
-21.50
-9.92
0.44
9.64
17.78
24.90
30.96
35.87
39.66
42.43
44.43
45.87
46.87
47.46
47.62
47.36
46.81
46.13
45.49
44.97
44.50
43.95
43.13
41.90
40.13
37.78
34.87
31.45
27.70
23.78
19.83
15.95
12.15
8.32
4.34
0.06
-4.55
-9.43
-14.40
-19.23
-23.76
-27.96
-32.00
-36.15
-40.77
-46.15
-52.41
-59.37
-66.50
-72.91
-77.44
-78.96
-76.70
-70.54
-61.06
-49.38
-36.81
-24.44
-12.97
-2.71
6.30
14.12
20.77
26.30
30.78
34.30
36.98
38.89
40.10
40.64
40.61
40.19
39.61
39.07
38.74
38.60
38.56
38.39
37.89
36.95
35.51
33.64
31.46
29.09
26.60
24.03
21.38
18.61
15.69
12.56
9.17
5.50
1.54
-2.67
-7.00
-11.35
-15.57
-19.62
-23.50
-27.32
-31.25
-35.47
-40.17
-45.47
-51.37
-57.58
-63.46
-68.02
-70.19
-69.09
-64.39
-56.39
-46.02
-34.47
-22.89
-12.13
-2.61
5.48
12.13
17.39
21.31
23.97
25.55
26.26
26.39
26.21
26.00
25.91
25.94
26.03
26.04
25.92
25.65
25.32
24.94
24.47
23.76
22.64
21.04
19.03
16.74
14.28
11.62
8.64
5.16
1.10
-3.44
-8.19
-12.81
-17.08
-20.90
-24.45
-28.07
-32.19
-37.15
-42.99
-49.34
-55.37
-59.91
-61.80
-60.25
-55.11
-46.86
-36.52
-25.27
-14.17
-3.93
5.04
12.64
18.83
23.59
26.96
28.99
29.83
29.71
28.88
27.60
26.16
24.76
23.55
22.60
21.84
21.15
20.37
19.37
18.12
16.64
15.00
13.24
11.32
9.16
6.66
3.68
0.14
-3.96
-8.53
-13.37
-18.23
-22.92
-27.37
-31.68
-36.12
-41.03
-46.69
-53.14
-60.11
-66.93
-72.58
-75.93
-75.96
-72.16
-64.61
-54.09
-41.79
-29.01
-16.85
-5.96
3.40
11.32
17.97
23.54
28.09
31.61
34.07
35.53
36.13
36.06
35.51
34.65
33.65
32.68
31.91
31.50
31.42
31.52
31.51
31.09
30.02
28.22
25.75
22.75
19.34
15.60
11.56
7.20
2.48
-2.59
-7.98
-13.56
-19.11
-24.46
-29.54
-34.55
-39.91
-46.07
-53.30
-61.40
-69.62
-76.75
-81.41
-82.44
-79.25
-71.96
-61.37
-48.72
-35.34
-22.33
-10.45
0.03
9.14
17.10
24.12
30.29
35.63
40.08
43.56
46.06
47.61
48.28
48.19
47.53
46.54
45.53
44.79
44.44
44.37
44.27
43.70
42.35
40.11
37.11
33.60
29.82
25.86
21.68
17.13
12.07
6.51
0.57
-5.46
-11.31
-16.74
-21.74
-26.52
-31.49
-37.14
-43.83
-51.60
-60.02
-68.22
-74.97
-78.98
-79.20
-75.13
-66.97
-55.56
-42.22
-28.33
-15.02
-2.93
7.72
17.01
25.12
32.09
37.87
42.39
45.61
47.61
48.63
48.92
48.76
48.38
47.97
47.66
47.52
47.61
47.90
48.27
48.52
48.32
47.31
45.21
41.94
37.73
33.04
28.36
24.03
20.06
16.15
11.90
7.02
1.52
-4.33
-10.14
-15.56
-20.45
-24.88
-29.16
-33.76
-39.15
-45.61
-53.01
-60.66
-67.32
-71.52
-71.96
-68.01
-59.90
-48.63
-35.63
-22.27
-9.58
1.88
11.92
20.48
27.58
33.24
37.47
40.37
42.11
42.89
42.99
42.66
42.16
41.64
41.21
40.85
40.53
40.22
39.87
39.42
38.79
37.74
36.09
33.67
30.46
26.62
22.35
17.82
13.05
8.02
2.69
-2.85
-8.40
-13.77
-18.83
-23.66
-28.47
-33.55
-39.18
-45.48
-52.37
-59.46
-66.04
-71.06
-73.40
-72.11
-66.79
-57.74
-45.95
-32.77
-19.50
-7.06
4.12
13.94
22.47
29.74
35.66
40.17
43.31
45.27
46.37
46.98
47.34
47.56
47.62
47.45
47.06
46.56
46.11
45.85
45.76
45.62
45.06
43.71
41.32
37.87
33.55
28.70
23.67
18.72
13.97
9.39
4.85
0.13
-4.88
-10.23
-15.80
-21.37
-26.74
-31.82
-36.73
-41.73
-47.19
-53.44
-60.61
-68.50
-76.50
-83.61
-88.57
-90.15
-87.50
-80.45
-69.54
-55.92
-41.03
-26.16
-12.26
0.20
11.14
20.71
29.10
36.42
42.70
47.89
51.93
54.86
56.77
57.85
58.30
58.29
57.93
57.33
56.59
55.85
55.24
54.81
54.48
54.00
53.07
51.38
48.78
45.28
41.08
36.45
31.68
27.01
22.54
18.32
14.27
10.30
6.26
2.01
-2.56
-7.48
-12.66
-17.92
-23.08
-27.94
-32.48
-36.81
-41.19
-45.99
-51.60
-58.21
-65.66
-73.32
-80.05
-84.47
-85.34
-81.90
-74.23
-63.18
-50.10
-36.40
-23.25
-11.26
-0.60
8.86
17.29
24.78
31.26
36.61
40.76
43.75
45.76
47.01
47.71
48.02
48.01
47.74
47.31
46.88
46.61
46.61
46.81
47.00
46.87
46.19
44.87
42.98
40.68
38.12
35.36
32.35
29.03
25.36
21.37
17.18
12.93
8.70
4.49
0.26
-4.05
-8.43
-12.87
-17.30
-21.64
-25.88
-30.04
-34.21
-38.48
-43.02
-48.00
-53.57
-59.74
-66.13
-71.96
-76.07
-77.27
-74.67
-68.13
-58.25
-46.31
-33.75
-21.78
-11.13
-1.94
5.98
12.87
18.83
23.78
27.54
30.03
31.41
32.07
32.44
32.82
33.29
33.68
33.78
33.49
32.94
32.40
32.15
32.26
32.54
32.61
32.03
30.57
28.22
25.23
21.95
18.67
15.54
12.50
9.35
5.89
2.00
-2.22
-6.54
-10.65
-14.34
-17.54
-20.37
-23.15
-26.28
-30.16
-35.03
-40.82
-47.08
-52.93
-57.28
-59.02
-57.41
-52.31
-44.22
-34.12
-23.24
-12.67
-3.19
4.83
11.32
16.40
20.25
22.99
24.72
25.55
25.71
25.41
24.90
24.33
23.72
23.11
22.49
21.98
21.69
21.74
22.04
22.37
22.35
21.66
20.13
17.85
15.09
12.15
9.22
6.32
3.32
0.05
-3.63
-7.77
-12.27
-16.95
-21.59
-25.99
-30.02
-33.76
-37.39
-41.26
-45.75
-51.07
-57.18
-63.55
-69.25
-73.07
-73.89
-70.97
-64.29
-54.53
-42.93
-30.88
-19.54
-9.57
-1.13
5.97
12.00
17.11
21.32
24.60
26.94
28.48
29.42
29.98
30.29
30.39
30.23
29.84
29.31
28.79
28.43
28.28
28.24
28.07
27.52
26.38
24.59
22.24
19.56
16.75
13.98
11.24
8.40
5.24
1.56
-2.68
-7.42
-12.43
-17.44
-22.21
-26.60
-30.64
-34.57
-38.78
-43.70
-49.61
-56.35
-63.24
-69.18
-72.81
-73.03
-69.31
-61.89
-51.69
-40.01
-28.16
-17.13
-7.44
0.82
7.86
13.97
19.38
24.13
28.19
31.41
33.72
35.14
35.83
36.00
35.83
35.46
34.98
34.44
33.96
33.64
33.54
33.55
33.44
32.90
31.63
29.53
26.72
23.47
20.12
16.89
13.85
10.89
7.82
4.43
0.59
-3.70
-8.31
-13.02
-17.57
-21.82
-25.77
-29.59
-33.65
-38.36
-43.94
-50.33
-57.04
-63.14
-67.51
-69.09
-67.16
-61.61
-52.93
-42.14
-30.45
-18.99
-8.57
0.44
8.02
14.34
19.61
23.96
27.51
30.31
32.41
33.95
35.01
35.67
35.98
35.98
35.80
35.58
35.44
35.44
35.47
35.38
34.91
33.89
32.17
29.78
26.86
23.60
20.19
16.77
13.35
9.86
6.26
2.55
-1.15
-4.73
-8.10
-11.28
-14.45
-17.85
-21.77
-26.44
-31.97
-38.29
-45.02
-51.40
-56.36
-58.78
-57.77
-53.05
-45.06
-34.86
-23.84
-13.25
-3.93
3.88
10.33
15.76
20.40
24.24
27.13
28.86
29.42
29.04
28.12
27.12
26.34
25.87
25.67
25.61
25.66
25.80
26.03
26.19
26.03
25.30
23.80
21.54
18.70
15.46
11.97
8.25
4.23
-0.09
-4.66
-9.31
-13.90
-18.31
-22.57
-26.85
-31.39
-36.50
-42.40
-49.10
-56.27
-63.10
-68.45
-71.09
-70.08
-65.12
-56.71
-45.97
-34.27
-22.82
-12.40
-3.30
4.52
11.23
16.90
21.56
25.18
27.76
29.40
30.26
30.52
30.37
29.96
29.37
28.66
27.84
26.93
25.94
24.86
23.72
22.51
21.17
19.61
17.74
15.42
12.55
9.02
4.80
0.01
-5.02
-9.69
-13.25
-14.93
-14.20
-10.87
-5.22
2.15
10.44
18.83
26.58
33.08
37.89
40.75
41.62
40.74
38.61
35.85
33.15
31.02
29.76
29.35
29.59
30.11
30.55
30.68
30.40
29.84
29.17
28.55
28.00
27.35
26.36
24.83
22.74
20.24
17.65
15.25
13.16
11.32
9.54
7.60
5.32
2.70
-0.19
-3.20
-6.17
-8.99
-11.68
-14.34
-17.20
-20.49
-24.32
-28.69
-33.43
-38.26
-42.88
-47.12
-50.93
-54.46
-58.00
-61.94
-66.66
-72.42
-79.13
-86.32
-93.00
-97.80
-99.34
-96.63
-89.42
-78.33
-64.67
-50.04
-35.89
-23.16
-12.19
-2.89
5.06
11.91
17.82
22.80
26.79
29.80
31.94
33.33
34.20
34.68
34.91
35.00
35.07
35.22
35.53
35.94
36.25
36.19
35.50
34.07
31.95
29.30
26.32
23.10
19.68
16.03
12.10
7.89
3.43
-1.25
-6.07
-10.97
-15.89
-20.88
-26.08
-31.71
-37.89
-44.50
-51.02
-56.55
-59.98
-60.32
-57.07
-50.37
-40.98
-30.08
-18.89
-8.37
0.89
8.75
15.28
20.60
24.80
27.92
30.04
31.30
31.92
32.16
32.22
32.16
31.92
31.40
30.50
29.27
27.85
26.47
25.27
24.28
23.32
22.06
20.14
17.35
13.69
9.38
4.82
0.37
-3.78
-7.73
-11.81
-16.46
-22.06
-28.76
-36.38
-44.43
-52.11
-58.44
-62.43
-63.28
-60.57
-54.44
-45.51
-34.83
-23.56
-12.70
-2.87
5.65
12.85
18.79
23.44
26.71
28.56
29.11
28.72
27.86
27.00
26.36
25.88
25.28
24.32
22.96
21.35
19.77
18.40
17.17
15.74
13.68
10.68
6.66
1.83
-3.47
-8.86
-14.07
-19.02
-23.84
-28.87
-34.53
-41.18
-48.92
-57.38
-65.72
-72.71
-77.07
-77.80
-74.53
-67.61
-57.97
-46.76
-35.03
-23.46
-12.31
-1.62
8.65
18.38
27.27
34.89
40.91
45.18
47.80
49.07
49.40
49.18
48.70
48.13
47.52
46.84
45.99
44.86
43.42
41.65
39.59
37.24
34.56
31.38
27.52
22.86
17.40
11.34
4.97
-1.39
-7.55
-13.48
-19.33
-25.35
-31.84
-39.11
-47.32
-56.41
-65.86
-74.71
-81.64
-85.29
-84.68
-79.52
-70.30
-58.09
-44.21
-29.79
-15.61
-2.06
10.75
22.78
33.96
44.13
53.04
60.44
66.13
70.08
72.40
73.41
73.51
73.10
72.44
71.70
70.89
69.98
68.94
67.81
66.61
65.29
63.75
61.77
59.16
55.81
51.74
47.11
42.17
37.17
32.28
27.56
22.93
18.23
13.26
7.86
2.00
-4.24
-10.65
-17.01
-23.15
-29.07
-34.91
-40.93
-47.42
-54.58
-62.44
-70.79
-79.09
-86.48
-91.89
-94.25
-92.76
-87.13
-77.72
-65.42
-51.41
-36.78
-22.27
-8.27
5.09
17.74
29.48
40.05
49.12
56.48
62.06
65.98
68.41
69.59
69.79
69.32
68.51
67.74
67.24
67.14
67.36
67.69
67.82
67.46
66.35
64.38
61.56
58.10
54.26
50.35
46.53
42.82
39.08
35.09
30.72
25.99
21.13
16.39
11.95
7.76
3.58
-0.89
-5.85
-11.27
-16.90
-22.35
-27.30
-31.67
-35.63
-39.59
-44.03
-49.33
-55.64
-62.78
-70.15
-76.79
-81.53
-83.20
-81.06
-74.90
-65.26
-53.15
-39.82
-26.38
-13.58
-1.80
8.86
18.38
26.70
33.69
39.23
43.28
45.91
47.32
47.76
47.52
46.83
45.88
44.79
43.72
42.79
42.11
41.73
41.59
41.53
41.34
40.78
39.64
37.84
35.39
32.41
29.08
25.56
21.95
18.26
14.44
10.44
6.25
1.86
-2.67
-7.31
-12.01
-16.71
-21.30
-25.66
-29.71
-33.53
-37.33
-41.47
-46.30
-52.01
-58.51
-65.30
-71.59
-76.36
-78.63
-77.74
-73.47
-66.16
-56.56
-45.56
-34.03
-22.58
-11.54
-1.12
8.54
17.27
24.82
31.03
35.83
39.29
41.60
43.01
43.75
44.01
43.93
43.63
43.25
42.90
42.70
42.67
42.75
42.79
42.56
41.86
40.57
38.72
36.41
33.81
31.03
28.11
25.02
21.72
18.19
14.50
10.83
7.31
4.02
0.90
-2.14
-5.21
-8.36
-11.63
-15.02
-18.58
-22.32
-26.24
-30.26
-34.25
-38.16
-42.00
-45.96
-50.31
-55.26
-60.80
-66.54
-71.74
-75.41
-76.57
-74.59
-69.37
-61.40
-51.55
-40.83
-30.06
-19.77
-10.15
-1.32
6.67
13.67
19.57
24.36
28.11
31.00
33.16
34.72
35.73
36.25
36.37
36.24
35.99
35.74
35.58
35.50
35.46
35.33
34.99
34.30
33.14
31.49
29.40
27.01
24.44
21.80
19.11
16.34
13.41
10.28
7.04
3.82
0.79
-1.93
-4.38
-6.75
-9.33
-12.30
-15.68
-19.26
-22.73
-25.89
-28.69
-31.29
-33.96
-36.98
-40.48
-44.49
-48.89
-53.39
-57.51
-60.59
-61.90
-60.80
-56.99
-50.67
-42.49
-33.42
-24.39
-16.10
-8.79
-2.41
3.29
8.46
13.08
16.96
19.90
21.81
22.87
23.35
23.54
23.62
23.59
23.42
23.13
22.87
22.78
22.98
23.40
23.84
24.03
23.77
22.95
21.57
19.69
17.46
15.04
12.62
10.33
8.16
5.92
3.38
0.39
-3.00
-6.49
-9.71
-12.38
-14.48
-16.21
-17.89
-19.84
-22.26
-25.24
-28.82
-32.97
-37.51
-42.04
-45.89
-48.26
-48.42
-46.01
-41.17
-34.46
-26.77
-18.95
-11.67
-5.26
0.19
4.75
8.48
11.38
13.42
14.57
14.87
14.49
13.64
12.59
11.62
10.92
10.55
10.48
10.62
10.89
11.31
11.91
12.73
13.67
14.48
14.85
14.52
13.43
11.70
9.59
7.39
5.25
3.20
1.15
-1.01
-3.37
-5.97
-8.81
-11.82
-14.89
-17.86
-20.60
-23.11
-25.51
-28.03
-30.96
-34.50
-38.67
-43.23
-47.66
-51.28
-53.35
-53.28
-50.76
-45.89
-39.15
-31.27
-23.03
-15.07
-7.82
-1.42
4.13
8.93
13.05
16.49
19.22
21.20
22.48
23.17
23.47
23.55
23.53
23.40
23.15
22.74
22.19
21.52
20.80
20.09
19.40
18.72
17.97
17.04
15.78
14.10
12.00
9.61
7.16
4.84
2.69
0.57
-1.80
-4.62
-7.92
-11.54
-15.22
-18.69
-21.81
-24.56
-26.99
-29.18
-31.29
-33.57
-36.37
-40.00
-44.52
-49.55
-54.23
-57.42
-58.13
-55.83
-50.66
-43.36
-34.95
-26.40
-18.39
-11.22
-4.91
0.61
5.42
9.54
12.98
15.82
18.24
20.42
22.47
24.35
25.88
26.84
27.10
26.74
26.00
25.17
24.48
24.00
23.67
23.36
22.92
22.18
20.98
19.17
16.71
13.74
10.55
7.50
4.83
2.57
0.48
-1.73
-4.37
-7.50
-10.97
-14.52
-17.94
-21.12
-24.16
-27.28
-30.77
-34.83
-39.50
-44.54
-49.48
-53.59
-56.05
-56.14
-53.43
-47.97
-40.27
-31.22
-21.81
-12.90
-5.03
1.56
6.95
11.31
14.88
17.82
20.18
21.94
23.06
23.52
23.42
22.93
22.27
21.64
21.18
20.93
20.87
20.94
21.07
21.10
20.90
20.32
19.25
17.70
15.76
13.57
11.24
8.85
6.40
3.86
1.14
-1.84
-5.08
-8.58
-12.28
-16.11
-20.07
-24.25
-28.82
-33.92
-39.44
-44.96
-49.71
-52.73
-53.18
-50.59
-45.04
-37.17
-27.99
-18.59
-9.82
-2.22
4.05
9.10
13.08
16.21
18.59
20.32
21.47
22.12
22.39
22.40
22.31
22.24
22.30
22.55
22.99
23.50
23.91
24.01
23.58
22.53
20.86
18.68
16.16
13.47
10.67
7.74
4.63
1.24
-2.43
-6.39
-10.57
-14.91
-19.39
-24.02
-28.89
-34.11
-39.78
-45.92
-52.33
-58.54
-63.77
-67.10
