1636538510.00
64.000000
-0.00
-0.00
-0.00
-0.00
-0.00
-0.00
-0.00
-0.00
-0.00
-0.00
0.00
0.01
0.01
-0.00
-0.03
-0.05
-0.05
0.00
0.13
0.36
0.66
1.01
1.37
1.72
2.06
2.40
2.79
3.24
3.80
4.42
5.06
5.66
6.20
6.68
7.15
7.68
8.31
9.14
10.09
11.04
11.88
12.56
13.14
13.76
14.65
15.96
17.91
20.32
22.90
25.38
27.58
29.57
31.68
34.32
37.81
42.54
48.15
54.10
59.83
64.97
69.58
74.14
79.34
85.71
93.76
103.00
112.62
121.73
129.77
136.75
143.30
150.75
157.77
166.64
177.95
191.79
206.97
220.57
228.25
225.36
208.53
176.87
132.76
80.05
23.07
-34.94
-92.44
-149.16
-205.23
-260.37
-313.74
-363.87
-409.82
-450.89
-486.47
-515.69
-537.15
-549.11
-549.82
-538.18
-513.97
-478.39
-433.54
-382.05
-326.55
-269.31
-212.03
-155.99
-102.21
-51.56
-5.01
36.56
72.49
102.52
126.77
145.76
160.21
170.80
178.18
182.74
184.76
184.47
182.16
178.16
172.88
166.74
160.08
153.15
146.09
138.98
131.85
124.76
117.76
110.92
104.31
98.00
92.00
86.34
81.04
76.08
71.50
67.29
63.46
60.02
56.96
54.30
52.02
50.13
48.60
47.42
46.54
45.87
45.32
44.73
43.95
42.79
41.08
38.68
35.50
31.50
26.72
21.24
15.23
8.91
2.55
-3.59
-9.26
-14.24
-18.36
-21.53
-23.72
-24.95
-25.31
-24.91
-23.90
-22.41
-20.58
-18.53
-16.34
-14.05
-11.69
-9.29
-6.87
-4.44
-1.99
0.50
3.03
5.61
8.27
11.02
13.82
16.65
19.51
22.39
25.33
28.33
31.47
34.78
38.36
42.13
46.07
50.14
54.36
58.74
63.28
68.03
73.04
78.39
83.95
89.61
95.33
101.08
106.84
112.60
118.36
124.14
129.98
135.58
140.72
145.18
148.73
151.08
151.87
150.64
146.69
141.38
135.21
128.53
121.57
114.49
107.45
100.54
93.88
87.58
81.77
76.31
71.06
66.01
61.11
56.37
51.82
47.49
43.47
39.84
36.47
33.29
30.23
27.29
24.45
21.73
19.13
16.69
14.47
12.38
10.37
8.41
6.52
4.69
2.94
1.33
-0.12
-1.35
-2.37
-3.21
-3.85
-4.34
-4.69
-4.92
-5.08
-5.18
-5.26
-5.36
-5.50
-5.69
-5.92
-6.18
-6.46
-6.72
-6.93
-7.08
-7.15
-7.12
-6.98
-6.74
-6.39
-5.96
-5.46
-4.90
-4.34
-3.78
-3.28
-2.87
-2.57
-2.42
-2.43
-2.60
-2.93
-3.41
-4.01
-4.70
-5.46
-6.25
-7.06
-7.84
-8.58
-9.25
-9.82
-10.25
-10.54
-10.67
-10.60
-10.32
-9.84
-9.18
-8.38
-7.51
-6.64
-5.87
-5.26
-4.84
-4.64
-4.64
-4.83
-5.20
-5.76
-6.52
-7.50
-8.66
-9.93
-11.23
-12.45
-13.50
-14.36
-15.05
-15.62
-16.16
-16.70
-17.24
-17.70
-18.03
-18.23
-18.38
-18.76
-19.63
-21.28
-23.81
-27.15
-31.00
-35.05
-39.01
-42.88
-46.89
-51.44
-56.92
-63.47
-70.85
-78.52
-85.85
-92.46
-98.36
-104.17
-110.74
-118.89
-129.00
-140.84
-153.63
-166.48
-178.75
-190.35
-201.85
-214.26
-228.71
-246.23
-267.47
-292.35
-319.64
-346.86
-370.56
-387.24
-394.54
-392.24
-382.38
-368.48
-354.00
-340.81
-328.54
-314.96
-297.22
-273.22
-242.51
-206.32
-166.90
-126.69
-87.75
-51.56
-19.20
8.45
30.58
46.67
56.74
61.52
62.35
60.83
58.37
55.81
53.41
51.00
48.33
45.38
42.46
40.02
38.51
37.89
37.61
36.69
34.07
29.05
21.58
12.34
2.41
-7.17
-15.83
-23.63
-31.29
-39.81
-50.00
-62.00
-74.96
-87.00
-95.54
-97.92
-92.27
-78.05
-56.38
-29.68
-1.05
26.69
51.42
72.00
88.03
99.46
106.41
109.08
107.91
103.67
97.39
90.14
82.71
75.55
68.75
62.35
56.48
51.50
47.79
45.53
44.49
43.95
42.85
40.17
35.25
28.02
19.00
9.09
-0.81
-10.13
-18.86
-27.46
-36.80
-47.74
-60.77
-75.59
-90.92
-104.49
-113.41
-115.00
-107.52
-90.87
-66.70
-37.85
-7.55
21.46
47.41
69.53
87.57
101.42
110.94
116.04
116.85
114.07
108.71
101.98
94.83
87.76
80.78
73.68
66.33
58.93
52.02
46.25
41.99
39.12
36.86
34.08
29.71
23.11
14.35
4.13
-6.50
-16.61
-25.73
-33.99
-42.05
-50.89
-61.41
-74.06
-88.52
-103.39
-116.40
-124.68
-125.56
-117.37
-100.09
-75.43
-46.41
-16.37
11.92
36.83
57.85
75.16
89.01
99.39
105.97
108.44
106.84
101.80
94.46
86.19
78.20
71.27
65.70
61.40
58.14
55.73
53.98
52.74
51.69
50.28
47.79
43.50
36.96
28.16
17.65
6.34
-4.76
-14.90
-23.84
-31.85
-39.60
-47.86
-57.30
-68.38
-81.21
-95.42
-109.91
-122.79
-131.40
-132.96
-125.37
-108.03
-82.22
-50.83
-17.57
14.19
42.13
65.25
83.50
97.25
106.73
111.96
112.94
110.02
104.01
96.13
87.71
79.77
72.86
67.02
62.03
57.61
53.67
50.29
47.64
45.75
44.39
43.02
40.90
37.30
31.79
24.26
15.02
4.66
-6.09
-16.60
-26.39
-35.25
-43.25
-50.69
-58.10
-66.17
-75.58
-86.66
-99.06
-111.39
-121.27
-125.79
-122.41
-109.81
-88.55
-60.91
-30.20
0.26
27.94
51.48
70.40
84.61
94.12
98.91
99.15
95.42
88.81
80.65
72.21
64.32
57.26
50.92
45.09
39.64
34.74
30.73
27.92
26.34
25.49
24.50
22.28
17.93
11.11
2.24
-7.72
-17.58
-26.39
-33.79
-40.10
-46.03
-52.46
-60.10
-69.39
-80.25
-92.01
-103.18
-111.57
-114.63
-110.22
-97.33
-76.61
-50.27
-21.35
7.14
32.98
54.90
72.46
85.52
93.98
97.82
97.19
92.83
85.98
78.10
70.55
64.20
59.28
55.48
52.28
49.16
45.88
42.47
39.11
35.95
32.88
29.48
25.10
19.11
11.21
1.58
-9.06
-19.76
-29.62
-38.15
-45.41
-51.92
-58.48
-65.95
-75.01
-85.94
-98.37
-111.06
-121.93
-128.32
-127.77
-118.66
-100.92
-76.03
-46.68
-16.00
13.22
39.09
60.59
77.54
90.11
98.62
103.40
104.85
103.38
99.63
94.35
88.27
82.03
76.06
70.55
65.54
60.97
56.76
52.84
49.15
45.58
42.01
38.29
34.20
29.49
23.89
17.17
9.28
0.40
-9.06
-18.56
-27.61
-35.94
-43.56
-50.76
-57.98
-65.74
-74.62
-85.09
-97.25
-110.37
-122.72
-131.63
-134.13
-127.95
-112.40
-88.60
-59.28
-27.80
2.76
30.27
53.65
72.57
87.02
97.12
103.03
105.10
104.01
100.60
95.74
90.10
84.09
77.94
71.82
66.03
60.97
57.04
54.47
53.10
52.38
51.48
49.61
46.27
41.41
35.41
28.83
22.15
15.48
8.63
1.27
-6.81
-15.50
-24.41
-32.96
-40.70
-47.46
-53.47
-59.20
-65.36
-72.72
-81.87
-92.94
-105.24
-117.00
-125.59
-128.03
-121.96
-106.53
-82.87
-53.82
-23.07
5.96
30.98
51.10
66.41
77.45
84.63
88.04
87.74
84.11
78.01
70.67
63.32
56.83
51.40
46.75
42.35
37.82
33.18
28.77
25.07
22.35
20.49
18.91
16.86
13.61
8.76
2.36
-5.20
-13.32
-21.42
-29.09
-36.22
-42.93
-49.56
-56.57
-64.45
-73.57
-83.97
-95.01
-105.30
-112.68
-114.74
-109.51
-96.22
-75.65
-49.94
-21.94
5.67
30.90
52.63
70.31
83.62
92.30
96.21
95.64
91.38
84.74
77.13
69.82
63.54
58.46
54.32
50.63
46.96
43.17
39.41
36.00
33.21
31.03
29.12
26.85
23.51
18.58
11.80
3.36
-6.26
-16.34
-26.16
-35.15
-43.04
-50.01
-56.57
-63.49
-71.66
-81.69
-93.66
-106.80
-119.29
-128.48
-131.45
-125.90
-111.00
-87.83
-59.12
-28.36
1.21
27.38
49.20
66.63
80.00
89.61
95.57
98.03
97.24
93.79
88.42
81.95
75.07
68.31
61.94
56.11
50.86
46.19
42.16
38.73
35.82
33.22
30.58
27.49
23.65
18.83
13.00
6.20
-1.44
-9.70
-18.25
-26.72
-34.75
-42.16
-49.06
-55.92
-63.50
-72.57
-83.68
-96.75
-110.70
-123.54
-132.49
-134.74
-128.24
-112.55
-88.99
-60.32
-29.95
-0.94
24.61
45.74
62.37
74.82
83.42
88.37
89.83
88.01
83.38
76.58
68.44
59.71
51.06
42.89
35.30
28.17
21.20
14.09
6.62
-1.30
-9.65
-18.32
-27.36
-37.02
-47.81
-60.32
-74.93
-91.61
-109.83
-128.79
-147.63
-165.81
-183.27
-200.48
-218.23
-237.58
-259.72
-285.72
-315.82
-348.75
-381.25
-408.46
-425.30
-428.19
-416.55
-392.99
-362.21
-329.13
-297.36
-268.41
-242.28
-218.43
-196.66
-177.20
-160.30
-145.78
-132.71
-119.92
-106.50
-92.32
-77.97
-64.49
-52.83
-43.29
-35.50
-28.56
-21.49
-13.69
-5.19
3.42
11.30
17.77
22.66
26.33
29.59
33.16
37.50
42.54
47.78
52.58
56.54
59.75
62.78
66.48
71.56
78.32
86.48
95.32
104.02
112.12
119.72
127.46
136.27
146.84
159.33
173.25
187.73
201.83
215.04
227.48
239.81
253.02
268.28
286.74
309.13
335.33
363.68
390.82
412.20
423.42
421.80
407.48
383.38
354.01
323.74
295.42
270.04
247.26
226.39
207.12
189.43
173.30
158.21
143.17
127.22
109.90
91.58
73.30
56.32
41.55
29.18
18.54
8.36
-2.86
-16.21
-31.91
-49.02
-65.47
-78.58
-85.75
-85.34
-77.15
-62.40
-43.38
-22.65
-2.39
16.00
31.88
45.05
55.51
63.19
68.05
70.10
69.64
67.28
63.78
59.85
55.94
52.23
48.66
45.19
41.88
38.97
36.65
34.96
33.65
32.27
30.35
27.63
24.08
19.87
15.15
9.94
4.12
-2.42
-9.67
-17.38
-25.16
-32.62
-39.48
-45.69
-51.47
-57.23
-63.50
-70.78
-79.30
-88.76
-98.09
-105.51
-108.82
-106.04
-96.13
-79.36
-57.32
-32.48
-7.45
15.61
35.35
51.26
63.35
71.92
77.25
79.67
79.55
77.37
73.71
69.19
64.31
59.35
54.42
49.56
44.89
40.70
37.41
35.30
34.40
34.24
34.05
32.97
30.44
26.46
21.41
15.96
10.71
5.91
1.45
-3.11
-8.25
-14.28
-21.17
-28.57
-35.86
-42.42
-47.88
-52.28
-56.11
-60.22
-65.58
-72.84
-82.10
-92.53
-102.38
-109.26
-110.77
-105.16
-91.98
-72.29
-48.36
-23.01
1.23
22.61
40.29
54.13
64.29
70.92
74.16
74.23
71.58
66.90
60.97
54.52
48.08
42.03
36.59
31.90
28.07
25.10
22.87
21.14
19.58
17.88
15.83
13.32
10.30
6.75
2.63
-2.09
-7.41
-13.18
-19.16
-25.06
-30.70
-36.01
-41.13
-46.35
-52.00
-58.46
-66.05
-74.83
-84.36
-93.43
-100.15
-102.25
-97.90
-86.38
-68.47
-46.33
-22.76
-0.37
19.12
35.02
47.47
56.90
63.71
68.13
70.29
70.36
68.63
65.56
61.63
57.32
53.00
48.98
45.43
42.41
39.82
37.50
35.20
32.75
30.04
27.03
23.65
19.82
15.37
10.15
4.08
-2.82
-10.36
-18.26
-26.27
-34.10
-41.60
-48.64
-55.18
-61.26
-67.12
-73.14
-79.75
-87.15
-95.01
-102.15
-106.77
-106.83
-100.79
-88.20
-69.90
-47.79
-24.29
-1.57
18.75
35.82
49.35
59.43
66.35
70.54
72.50
72.76
71.76
69.87
67.29
64.16
60.63
56.83
52.94
49.20
45.82
42.98
40.78
39.05
37.46
35.48
32.62
28.61
23.51
17.70
11.65
5.76
0.13
-5.33
-10.80
-16.39
-22.02
-27.42
-32.37
-36.78
-40.89
-45.22
-50.52
-57.55
-66.77
-77.97
-90.06
-101.05
-108.38
-109.68
-103.48
-89.69
-69.69
-45.87
-20.89
2.90
23.90
41.37
55.11
65.31
72.29
76.44
78.16
77.91
76.13
73.24
69.60
65.49
61.11
56.57
52.05
47.81
44.21
41.52
39.88
39.09
38.66
37.94
36.30
33.40
29.27
24.27
18.90
13.57
8.38
3.14
-2.56
-9.05
-16.43
-24.40
-32.36
-39.67
-45.89
-50.93
-55.12
-59.07
-63.53
-69.23
-76.52
-85.17
-94.13
-101.51
-105.01
-102.62
-93.25
-77.23
-56.30
-33.01
-10.03
10.61
27.78
41.24
51.25
58.23
62.52
64.35
63.98
61.78
58.25
53.96
49.45
45.05
40.97
37.20
33.71
30.50
27.63
25.21
23.28
21.75
20.32
18.60
16.18
12.79
8.35
2.99
-3.02
-9.31
-15.51
-21.30
-26.47
-31.00
-35.05
-38.95
-43.19
-48.30
-54.69
-62.42
-71.04
-79.33
-85.56
-87.76
-84.34
-74.66
-59.27
-39.78
-18.46
2.47
21.29
36.98
49.15
57.77
63.05
65.25
64.78
62.19
58.18
53.52
48.89
44.70
41.04
37.74
34.48
30.95
27.11
23.16
19.48
16.35
13.91
11.89
9.79
7.06
3.25
-1.79
-7.86
-14.53
-21.27
-27.60
-33.29
-38.41
-43.39
-48.86
-55.54
-63.91
-73.94
-84.84
-95.01
-102.29
-104.52
-100.10
-88.58
-70.89
-49.02
-25.50
-2.67
17.73
34.76
48.17
58.09
64.72
68.39
69.42
68.29
65.56
61.88
57.80
53.72
49.86
46.27
43.00
40.15
37.84
36.14
34.97
34.04
32.85
30.93
27.96
23.92
19.04
13.64
7.95
2.00
-4.34
-11.21
-18.54
-26.04
-33.18
-39.48
-44.75
-49.28
-53.79
-59.29
-66.59
-75.95
-86.74
-97.37
-105.62
-109.22
-106.41
-96.53
-80.19
-59.06
-35.48
-11.79
10.05
28.81
44.00
55.66
64.08
69.67
72.76
73.67
72.79
70.54
67.37
63.66
59.68
55.59
51.51
47.61
44.07
41.06
38.60
36.54
34.63
32.50
29.77
26.21
21.76
16.58
11.03
5.51
0.25
-4.84
-10.14
-16.16
-23.22
-31.24
-39.68
-47.76
-54.85
-60.75
-65.92
-71.47
-78.61
-88.12
-99.63
-111.33
-120.24
-123.20
-117.87
-103.82
-82.60
-57.20
-31.05
-6.87
13.75
30.58
44.34
56.48
68.75
82.68
99.10
117.41
135.54
150.33
158.77
159.28
152.59
141.54
130.07
121.64
118.04
119.11
123.10
127.61
130.38
129.65
124.25
113.54
97.39
76.21
51.00
23.21
-5.58
-33.97
-60.89
-85.69
-108.10
-128.12
-146.01
-161.95
-175.77
-186.66
-193.02
-192.95
-185.01
-169.04
-146.47
-119.94
-92.43
-66.30
-42.74
-21.87
-3.26
13.53
28.55
41.43
51.52
58.19
61.04
60.22
56.59
51.53
46.61
42.97
40.89
39.71
38.36
36.00
32.56
28.90
26.21
25.44
26.70
29.14
31.27
31.51
28.67
22.09
11.60
-2.70
-20.33
-40.04
-59.58
-75.89
-86.20
-89.45
-87.16
-83.09
-81.48
-84.90
-92.79
-101.66
-106.82
-104.71
-94.46
-77.98
-58.70
-39.83
-23.09
-8.57
4.65
17.66
30.84
43.65
54.74
62.46
65.57
63.84
58.29
50.78
43.45
38.02
35.34
35.36
37.46
40.91
45.22
50.46
57.03
65.27
75.00
85.17
93.99
99.36
99.67
94.39
84.14
70.37
54.94
39.86
27.36
19.88
19.59
27.26
40.92
55.37
63.19
57.40
34.38
-4.41
-52.72
-102.01
-144.54
-175.66
-194.30
-201.69
-199.62
-189.15
-170.58
-144.40
-112.38
-77.81
-44.96
-17.63
2.02
13.88
19.62
21.57
21.70
20.98
19.49
16.98
13.55
9.91
7.15
6.24
7.51
10.51
14.19
17.31
18.93
18.60
16.41
12.79
8.41
3.79
-0.74
-5.17
-9.74
-14.78
-20.48
-26.79
-33.53
-40.54
-47.86
-55.62
-63.76
-71.77
-78.38
-81.87
-80.58
-73.57
-61.00
-44.13
-24.78
-4.84
14.13
31.02
45.09
55.76
62.73
66.01
66.14
64.07
61.04
58.01
55.53
53.53
51.56
49.08
45.79
41.81
37.60
33.75
30.73
28.58
26.91
25.01
22.07
17.56
11.35
3.78
-4.50
-12.77
-20.50
-27.50
-33.87
-39.95
-46.19
-52.94
-60.35
-68.18
-75.73
-81.76
-84.81
-83.49
-76.94
-65.21
-49.25
-30.69
-11.34
7.24
24.04
38.64
50.94
60.86
68.18
72.56
73.80
72.09
68.11
62.95
57.69
53.09
49.40
46.38
43.60
40.78
37.97
35.40
33.37
31.90
30.65
29.04
26.39
22.33
16.87
10.41
3.53
-3.24
-9.58
-15.50
-21.18
-26.81
-32.55
-38.48
-44.69
-51.33
-58.40
-65.48
-71.55
-74.97
-73.93
-67.06
-54.15
-36.36
-16.04
3.97
21.26
34.48
43.59
49.47
53.28
55.86
57.37
57.41
55.53
51.62
46.23
40.44
35.37
31.81
30.05
29.90
31.04
33.03
35.33
37.16
37.61
35.97
32.07
26.49
20.43
15.10
11.27
9.01
7.80
6.96
6.01
4.67
2.81
0.15
-3.79
-9.70
-18.09
-28.99
-41.69
-54.75
-66.27
-74.37
-77.68
-75.72
-68.89
-58.23
-45.01
-30.34
-15.10
-0.03
14.10
26.34
35.65
41.16
42.37
39.44
33.20
25.05
16.62
9.30
3.87
0.37
-1.73
-3.03
-3.89
-4.27
-3.85
-2.49
-0.53
1.23
1.82
0.57
-2.45
-6.45
-10.19
-12.62
-13.31
-12.69
-11.87
-12.12
-14.48
-19.41
-26.69
-35.50
-44.59
-52.35
-57.14
-57.50
-52.64
-42.67
-28.65
-12.26
4.65
20.57
34.58
46.25
55.54
62.49
67.13
69.51
69.67
67.73
63.87
58.41
51.82
44.67
37.62
31.20
25.67
21.02
17.00
13.30
9.73
6.23
2.77
-0.76
-4.59
-9.05
-14.46
-20.88
-28.05
-35.40
-42.29
-48.21
-53.03
-56.97
-60.56
-64.49
-69.38
-75.66
-83.35
-91.90
-100.06
-106.05
-107.90
-104.05
-93.89
-78.02
-58.08
-36.27
-14.67
5.23
22.65
37.34
49.30
58.45
64.68
67.91
68.31
66.36
62.79
58.38
53.84
49.57
45.71
42.22
38.98
35.95
33.21
30.84
28.91
27.32
25.83
24.02
21.45
17.71
12.58
6.07
-1.55
-9.81
-18.11
-25.93
-32.89
-38.85
-43.94
-48.55
-53.27
-58.74
-65.52
-73.61
-82.32
-90.04
-94.61
-94.05
-87.11
-73.88
-55.73
-34.90
-13.69
6.07
23.35
37.77
49.28
57.89
63.57
66.29
66.23
63.82
59.82
55.05
50.29
46.03
42.41
39.30
36.45
33.68
31.00
28.63
26.76
25.47
24.53
23.48
21.76
18.84
14.51
8.93
2.50
-4.21
-10.70
-16.71
-22.23
-27.44
-32.70
-38.39
-44.89
-52.43
-60.91
-69.69
-77.49
-82.60
-83.23
-78.16
-67.15
-51.16
-32.03
-11.94
7.12
23.84
37.58
48.23
55.94
60.89
63.23
63.18
61.14
57.63
53.29
48.67
44.26
40.36
37.09
34.48
32.44
30.78
29.28
27.73
26.00
24.01
21.72
19.02
15.76
11.71
6.75
0.97
-5.32
-11.69
-17.72
-23.22
-28.24
-33.05
-38.06
-43.73
-50.40
-58.27
-67.19
-76.57
-85.20
-91.46
-93.50
-89.88
-80.04
-64.54
-45.00
-23.62
-2.58
16.46
32.55
45.38
55.06
61.82
65.89
67.53
67.04
64.87
61.57
57.68
53.60
49.65
45.97
42.69
39.95
37.85
36.38
35.39
34.55
33.44
31.72
29.24
26.07
22.40
18.45
14.35
10.04
5.41
0.30
-5.28
-11.17
-17.06
-22.70
-27.97
-32.99
-38.04
-43.56
-49.95
-57.49
-66.23
-75.78
-85.15
-92.76
-96.71
-95.28
-87.56
-73.83
-55.59
-35.06
-14.52
4.35
20.66
34.26
45.26
53.78
59.79
63.26
64.26
63.17
60.60
57.15
53.39
49.63
46.03
42.70
39.75
37.28
35.39
34.05
33.04
31.98
30.46
28.16
24.94
20.96
16.45
11.71
6.87
1.90
-3.28
-8.73
-14.34
-19.89
-25.14
-29.99
-34.53
-39.09
-44.13
-50.13
-57.40
-65.89
-74.99
-83.44
-89.54
-91.44
-87.74
-77.95
-62.76
-43.92
-23.69
-4.21
12.99
27.26
38.67
47.67
54.65
59.76
62.91
63.95
62.89
60.02
55.88
51.08
46.17
41.58
37.54
34.13
31.36
29.19
27.45
25.93
24.34
22.40
19.90
16.74
12.94
8.56
3.70
-1.55
-7.09
-12.82
-18.69
-24.67
-30.74
-36.86
-42.99
-49.12
-55.32
-61.77
-68.67
-76.03
-83.31
-89.35
-92.44
-90.87
-83.55
-70.47
-52.85
-32.68
-12.19
6.83
23.36
37.06
47.95
56.22
62.02
65.42
66.58
65.77
63.41
60.01
56.01
51.77
47.57
43.57
39.93
36.86
34.52
33.01
32.18
31.69
31.04
29.77
27.63
24.57
20.79
16.50
11.79
6.61
0.83
-5.62
-12.62
-19.83
-26.87
-33.38
-39.24
-44.68
-50.16
-56.31
-63.71
-72.56
-82.45
-92.23
-100.05
-103.84
-101.81
-93.08
-77.99
-58.10
-35.61
-12.85
8.29
26.70
41.91
53.88
62.79
68.83
72.21
73.20
72.18
69.65
66.13
62.12
58.01
54.15
50.78
48.12
46.24
45.12
44.51
43.94
42.92
41.04
38.17
34.45
30.17
25.68
21.15
16.55
11.62
6.08
-0.23
-7.22
-14.58
-21.90
-28.81
-35.22
-41.25
-47.28
-53.74
-61.00
-69.17
-77.85
-86.08
-92.37
-94.98
-92.43
-84.04
-70.16
-52.23
-32.27
-12.27
6.21
22.32
35.74
46.39
54.17
58.91
60.57
59.41
56.10
51.57
46.78
42.43
38.77
35.74
33.09
30.63
28.35
26.36
24.77
23.63
22.75
21.78
20.29
17.87
14.21
9.21
3.10
-3.66
-10.48
-16.85
-22.50
-27.48
-32.14
-37.01
-42.60
-49.29
-57.22
-66.10
-75.10
-82.80
-87.48
-87.46
-81.65
-69.89
-53.14
-33.25
-12.42
7.32
24.57
38.59
49.24
56.67
61.05
62.58
61.49
58.22
53.46
48.03
42.72
38.03
34.16
31.01
28.36
26.05
23.99
22.18
20.59
19.07
17.38
15.22
12.28
8.42
3.55
-2.17
-8.48
-14.99
-21.27
-27.00
-32.06
-36.59
-41.04
-46.03
-52.26
-60.23
-69.91
-80.54
-90.55
-97.89
-100.49
-96.92
-86.82
-71.02
-51.30
-29.84
-8.62
10.96
28.13
42.59
54.22
62.88
68.46
70.98
70.73
68.35
64.69
60.53
56.49
52.79
49.43
46.32
43.45
40.90
38.79
37.16
35.81
34.37
32.40
29.59
25.93
21.66
17.16
12.74
8.39
3.85
-1.32
-7.42
-14.43
-21.96
-29.35
-35.97
-41.45
-45.88
-49.73
-53.81
-59.00
-65.90
-74.58
-84.34
-93.68
-100.52
-102.79
-98.96
-88.60
-72.44
-52.21
-30.09
-8.18
11.92
29.25
43.44
54.51
62.67
68.19
71.33
72.36
71.61
69.43
66.25
62.50
58.53
54.63
50.90
47.38
44.00
40.73
37.53
34.39
31.32
28.27
25.16
21.82
18.08
13.77
8.83
3.35
-2.44
-8.18
-13.56
-18.37
-22.66
-26.66
-30.75
-35.31
-40.63
-46.95
-54.42
-62.94
-71.99
-80.43
-86.58
-88.52
-84.70
-74.60
-58.90
-39.40
-18.38
2.02
20.25
35.58
47.80
56.92
62.98
66.01
66.18
63.95
60.04
55.34
50.58
46.19
42.19
38.32
34.35
30.25
26.32
22.93
20.41
18.68
17.28
15.45
12.46
7.94
1.93
-5.11
-12.42
-19.31
-25.27
-30.11
-34.03
-37.50
-41.23
-46.00
-52.36
-60.38
-69.48
-78.28
-84.87
-87.26
-83.99
-74.54
-59.62
-40.89
-20.49
-0.49
17.62
32.99
45.30
54.55
60.77
64.00
64.36
62.17
58.02
52.72
47.12
41.87
37.33
33.46
30.06
26.93
23.99
21.37
19.25
17.71
16.57
15.38
13.49
10.33
5.62
-0.53
-7.64
-14.98
-21.91
-28.06
-33.39
-38.17
-42.87
-48.03
-54.18
-61.81
-71.06
-81.53
-92.03
-100.67
-105.15
-103.55
-94.89
-79.54
-58.98
-35.43
-11.21
11.68
31.79
48.19
60.39
68.37
72.46
73.32
71.77
68.57
64.39
59.77
55.09
50.62
46.50
42.76
39.33
36.17
33.33
30.95
29.15
27.85
26.67
24.95
22.07
17.57
11.40
3.96
-4.12
-12.09
-19.46
-25.99
-31.83
-37.39
-43.29
-50.15
-58.46
-68.28
-79.10
-89.61
-97.92
-101.92
-99.93
-91.19
-76.22
-56.67
-34.82
-12.90
7.44
25.34
40.52
53.02
62.81
69.80
73.89
75.09
73.75
70.46
66.01
61.16
56.51
52.44
49.13
46.59
44.70
43.26
41.96
40.55
38.76
36.46
33.57
30.04
25.89
21.13
15.77
9.92
3.70
-2.76
-9.36
-16.01
-22.66
-29.23
-35.60
-41.68
-47.54
-53.52
-60.14
-67.91
-76.86
-86.30
-94.61
-99.63
-99.28
-92.29
-78.72
-59.97
-38.29
-16.12
4.56
22.57
37.48
49.31
58.24
64.38
67.81
68.67
67.27
64.17
60.04
55.56
51.20
47.20
43.58
40.28
37.20
34.32
31.66
29.25
27.01
24.72
22.03
18.58
14.09
8.50
2.01
-4.99
-12.00
-18.71
-24.96
-30.81
-36.46
-42.18
-48.31
-55.22
-63.26
-72.53
-82.61
-92.31
-99.74
-102.75
-99.61
-89.58
-73.29
-52.48
-29.49
-6.59
14.52
32.85
48.04
60.07
68.99
74.84
77.65
77.53
74.78
69.94
63.76
57.09
50.66
45.06
40.53
37.12
34.70
33.07
31.95
31.14
30.36
29.42
28.03
25.92
22.77
18.36
12.63
5.78
-1.73
-9.35
-16.57
-23.09
-28.97
-34.54
-40.36
-46.98
-54.87
-64.19
-74.53
-84.80
-93.27
-97.92
-97.04
-89.73
-76.29
-58.10
-37.15
-15.51
5.11
23.56
39.19
51.68
60.93
67.05
70.29
71.09
69.96
67.36
63.76
59.53
55.03
50.63
46.64
43.34
40.93
39.40
38.63
38.37
38.23
37.79
36.65
34.55
31.35
27.18
22.23
16.78
10.98
4.82
-1.78
-8.88
-16.34
-23.83
-30.89
-37.19
-42.62
-47.45
-52.26
-57.76
-64.57
-72.93
-82.46
-91.97
-99.67
-103.51
-101.80
-93.71
-79.52
-60.59
-38.90
-16.56
4.68
23.67
39.80
52.98
63.24
70.68
75.35
77.39
77.08
74.95
71.68
67.88
63.99
60.12
56.22
52.26
48.42
45.05
42.52
41.00
40.28
39.82
38.98
37.20
34.22
30.13
25.32
20.29
15.51
11.19
7.24
3.28
-1.15
-6.36
-12.30
-18.57
-24.63
-30.00
-34.49
-38.32
-41.95
-46.03
-51.14
-57.65
-65.48
-74.02
-82.01
-87.73
-89.39
-85.67
-76.16
-61.61
-43.63
-24.22
-5.20
12.14
27.10
39.42
49.01
55.85
59.94
61.41
60.55
57.90
54.12
49.88
45.78
42.18
39.22
36.87
34.93
33.27
31.76
30.39
29.01
27.39
25.17
22.00
17.68
12.26
6.07
-0.47
-6.94
-13.11
-18.83
-24.09
-28.89
-33.30
-37.48
-41.66
-46.24
-51.64
-58.21
-65.92
-74.24
-81.97
-87.45
-88.89
-85.01
-75.44
-60.90
-42.98
-23.67
-4.77
12.39
27.12
39.13
48.35
54.82
58.65
60.10
59.63
57.79
55.12
52.04
48.70
45.17
41.42
37.65
34.19
31.48
29.79
29.07
28.87
28.51
27.38
25.15
21.86
17.81
13.43
9.04
4.79
0.66
-3.51
-7.87
-12.52
-17.45
-22.56
-27.61
-32.44
-36.99
-41.41
-46.13
-51.63
-58.35
-66.38
-75.28
-83.99
-90.90
-94.23
-92.53
-85.13
-72.42
-55.70
-36.77
-17.45
0.84
17.22
31.29
42.89
51.96
58.45
62.35
63.78
63.02
60.57
57.02
53.00
49.03
45.38
42.16
39.34
36.94
35.05
33.78
33.19
33.06
32.91
32.18
30.43
27.60
23.98
20.08
16.42
13.22
10.33
7.27
3.53
-1.26
-7.09
-13.60
-20.24
-26.48
-32.01
-36.74
-40.85
-44.72
-48.87
-53.85
-60.03
-67.29
-74.88
-81.35
-84.91
-83.98
-77.76
-66.52
-51.48
-34.40
-17.03
-0.66
13.92
26.38
36.52
44.16
49.12
51.37
51.12
48.84
45.22
40.94
36.58
32.54
29.04
26.22
24.14
22.79
22.12
21.99
22.14
22.30
22.13
21.36
19.73
17.10
13.45
8.90
3.73
-1.70
-7.08
-12.14
-16.79
-21.10
-25.22
-29.32
-33.62
-38.36
-43.77
-49.97
-56.81
-63.64
-69.29
-72.29
-71.29
-65.52
-55.12
-41.15
-25.28
-9.21
5.67
18.58
29.23
37.67
43.98
48.25
50.46
50.66
49.02
45.90
41.75
37.13
32.51
28.22
24.45
21.28
18.69
16.68
15.21
14.19
13.52
13.02
12.51
11.74
10.46
8.39
5.33
1.21
-3.83
-9.43
-15.19
-20.75
-25.93
-30.68
-35.13
-39.44
-43.84
-48.70
-54.39
-61.11
-68.55
-75.72
-80.97
-82.51
-78.93
-69.79
-55.77
-38.45
-19.78
-1.55
14.95
29.04
40.53
49.44
55.87
59.89
61.63
61.30
59.30
56.13
52.30
48.22
44.09
40.01
35.97
32.05
28.41
25.23
22.65
20.71
19.25
18.06
16.94
15.62
13.97
11.80
9.01
5.49
1.22
-3.71
-9.14
-14.73
-20.12
-24.98
-29.18
-32.92
-36.72
-41.29
-47.27
-54.77
-63.10
-70.78
-75.87
-76.58
-71.89
-61.97
-48.09
-32.15
-16.03
-1.03
12.26
23.82
33.76
42.06
48.45
52.59
54.33
53.76
51.31
47.51
42.91
37.91
32.83
27.93
23.50
19.82
17.09
15.37
14.50
14.19
14.02
13.61
12.59
10.73
7.90
4.08
-0.50
-5.48
-10.43
-14.99
-19.09
-22.98
-27.18
-32.25
-38.57
-46.23
-54.87
-63.76
-71.75
-77.47
-79.52
-76.79
-68.87
-56.23
-40.14
-22.38
-4.70
11.56
25.60
37.08
45.98
52.33
56.20
57.72
57.18
54.99
51.68
47.78
43.73
39.88
36.41
33.43
30.92
28.78
26.87
25.00
23.00
20.80
18.45
16.00
13.51
10.91
7.94
4.31
-0.14
-5.42
-11.22
-17.10
-22.71
-27.87
-32.65
-37.39
-42.51
-48.40
-55.31
-63.21
-71.59
-79.45
-85.31
-87.56
-84.89
-76.74
-63.55
-46.67
-27.96
-9.27
8.02
23.09
35.67
45.67
53.11
58.00
60.44
60.78
59.45
56.99
53.83
50.32
46.61
42.85
39.18
35.79
32.86
30.50
28.70
27.30
26.07
24.75
23.05
20.77
17.80
14.12
9.82
5.03
-0.12
-5.49
-10.95
-16.41
-21.70
-26.69
-31.30
-35.55
-39.63
-43.87
-48.71
-54.51
-61.36
-68.81
-75.80
-80.75
-81.93
-78.05
-68.71
-54.56
-37.14
-18.38
-0.07
16.51
30.69
42.23
51.13
57.49
61.40
63.10
62.87
61.11
58.21
54.52
50.37
46.02
41.77
37.93
34.74
32.40
30.90
30.00
29.32
28.43
27.00
24.87
22.11
18.93
15.51
11.96
8.22
4.21
-0.19
-4.94
-9.91
-14.87
-19.56
-23.82
-27.63
-31.15
-34.72
-38.84
-44.02
-50.58
-58.40
-66.65
-73.85
-78.18
-77.98
-72.34
-61.48
-46.68
-29.82
-12.75
3.14
17.17
29.15
38.97
46.44
51.24
53.12
52.19
48.98
44.39
39.44
34.91
31.18
28.27
25.98
24.07
22.44
21.05
19.91
18.98
18.08
17.00
15.56
13.61
11.12
8.14
4.74
1.00
-2.98
-7.09
-11.25
-15.37
-19.52
-23.80
-28.41
-33.58
-39.56
-46.55
-54.42
-62.58
-69.85
-74.66
-75.46
-71.25
-61.95
-48.46
-32.37
-15.45
0.83
15.52
28.16
38.59
46.75
52.56
56.03
57.23
56.42
54.04
50.61
46.67
42.63
38.80
35.35
32.42
30.13
28.61
27.85
27.66
27.57
27.01
25.48
22.78
19.08
14.82
10.49
6.33
2.35
-1.73
-6.14
-10.92
-15.93
-20.91
-25.66
-30.16
-34.55
-39.12
-44.18
-50.06
-57.00
-65.03
-73.74
-82.16
-88.71
-91.61
-89.36
-81.34
-68.03
-50.90
-31.95
-13.04
4.45
19.77
32.68
43.13
51.12
56.64
59.66
60.30
58.89
55.98
52.16
48.05
44.15
40.76
38.00
35.87
34.35
33.42
33.03
33.08
33.26
33.15
32.26
30.28
27.17
23.20
18.92
14.78
11.01
7.53
3.97
-0.06
-4.78
-10.16
-15.87
-21.43
-26.45
-30.72
-34.34
-37.74
-41.53
-46.37
-52.68
-60.45
-69.04
-77.16
-83.13
-85.20
-82.19
-73.79
-60.74
-44.54
-27.05
-10.02
5.38
18.52
29.28
37.75
44.14
48.67
51.47
52.73
52.56
51.14
48.69
45.58
42.20
38.97
36.18
33.89
31.97
30.22
28.53
26.86
25.26
23.75
22.28
20.72
18.90
16.72
14.08
10.90
7.03
2.42
-2.89
-8.64
-14.44
-19.85
-24.65
-28.87
-32.85
-37.10
-42.10
-48.12
-54.98
-61.97
-67.91
-71.29
-70.79
-65.61
-55.80
-42.28
-26.57
-10.37
4.93
18.45
29.79
38.89
45.76
50.44
52.93
53.26
51.62
48.36
44.05
39.35
34.94
31.40
29.05
27.91
27.69
27.93
28.10
27.72
26.49
24.27
21.06
17.01
12.38
7.42
2.40
-2.55
-7.33
-11.90
-16.24
-20.42
-24.55
-28.75
-33.10
-37.66
-42.47
-47.66
-53.43
-59.87
-66.68
-72.94
-77.16
-77.69
-73.31
-63.74
-49.85
-33.30
-15.98
0.50
15.16
27.49
37.38
44.80
49.81
52.53
53.25
52.35
50.28
47.42
44.07
40.44
36.73
33.12
29.85
27.16
25.27
24.27
24.06
24.32
24.58
24.34
23.25
21.23
18.50
15.42
12.30
9.20
5.91
2.03
-2.82
-8.80
-15.63
-22.69
-29.19
-34.51
-38.46
-41.44
-44.30
-48.10
-53.68
-61.26
-70.29
-79.39
-86.66
-90.17
-88.49
-81.10
-68.55
-52.21
-33.93
-15.47
1.76
16.91
29.57
39.64
47.13
52.21
55.15
56.33
56.17
55.06
53.24
50.88
48.10
45.04
41.97
39.12
36.74
34.89
33.52
32.45
31.43
30.21
28.58
26.41
23.61
20.23
16.37
12.20
7.90
3.55
-0.87
-5.44
-10.20
-15.15
-20.12
-24.90
-29.34
-33.39
-37.25
-41.37
-46.28
-52.44
-59.86
-67.96
-75.44
-80.59
-81.70
-77.71
-68.51
-55.00
-38.74
-21.47
-4.66
10.72
24.07
35.11
43.63
49.61
53.11
54.46
54.13
52.62
50.35
47.64
44.69
41.66
38.75
36.18
34.16
32.88
32.35
32.41
32.66
32.64
31.89
30.26
27.83
24.96
22.12
19.59
17.39
15.19
12.43
8.56
3.28
-3.35
-10.81
-18.26
-24.85
-29.92
-33.31
-35.32
-36.78
-38.71
-41.99
-47.08
-53.62
-60.49
-66.00
-68.38
-66.37
-59.66
-48.90
-35.45
-20.85
-6.39
7.09
19.14
29.46
37.71
43.56
46.81
47.54
46.14
43.29
39.69
36.01
32.78
30.25
28.51
27.36
26.48
25.48
24.10
22.24
19.98
17.50
14.94
12.28
9.35
5.92
1.82
-2.94
-8.11
-13.26
-17.92
-21.84
-24.97
-27.55
-29.93
-32.53
-35.72
-39.88
-45.32
-52.04
-59.56
-66.69
-71.72
-72.86
-68.91
-59.72
-46.29
-30.48
-14.26
0.80
13.87
24.78
33.75
40.96
46.51
50.29
52.19
52.24
50.69
47.97
44.64
41.24
38.14
35.49
33.22
31.19
29.26
27.31
25.31
23.22
20.95
18.35
15.28
11.61
7.34
2.56
-2.59
-7.90
-13.17
-18.26
-23.13
-27.77
-32.23
-36.64
-41.12
-45.92
-51.33
-57.55
-64.49
-71.50
-77.27
-80.25
-78.98
-72.77
-61.86
-47.41
-30.95
-14.03
2.16
16.85
29.58
40.05
48.11
53.68
56.90
58.07
57.63
56.03
53.68
50.90
47.90
44.81
41.74
38.78
36.08
33.77
31.97
30.68
29.73
28.85
27.74
26.17
24.01
21.29
18.08
14.48
10.52
6.11
1.15
-4.36
-10.28
-16.31
-21.99
-26.99
-31.20
-34.90
-38.60
-42.94
-48.37
-54.94
-62.17
-68.99
-73.93
-75.48
-72.54
-64.75
-52.71
-37.73
-21.51
-5.64
8.74
21.02
31.00
38.71
44.21
47.53
48.81
48.29
46.33
43.44
40.11
36.78
33.76
31.15
28.92
26.94
25.04
23.11
21.18
19.34
17.66
16.15
14.59
12.64
9.92
6.29
1.86
-2.93
-7.59
-11.76
-15.41
-18.79
-22.28
-26.23
-30.84
-36.25
-42.51
-49.53
-56.80
-63.25
-67.35
-67.56
-62.86
-53.27
-39.81
-24.15
-8.02
7.26
20.92
32.53
41.82
48.47
52.33
53.42
52.13
49.07
44.92
40.31
35.75
31.62
28.12
25.33
23.13
21.37
19.89
18.56
17.34
16.20
15.05
13.76
12.16
10.20
7.89
5.31
2.49
-0.58
-3.95
-7.69
-11.77
-16.14
-20.76
-25.71
-31.07
-37.10
-44.02
-52.03
-61.09
-70.72
-79.82
-86.70
-89.47
-86.52
-77.23
-62.22
-43.29
-22.87
-3.28
13.86
27.86
38.71
46.77
52.33
55.53
56.48
55.40
52.83
49.45
45.95
42.76
39.95
37.31
34.60
31.70
28.79
26.18
24.17
22.87
22.07
21.40
20.38
18.58
15.71
11.68
6.59
0.72
-5.48
-11.52
-16.97
-21.53
-25.14
-28.05
-30.70
-33.78
-37.96
-43.75
-51.16
-59.54
-67.49
-73.17
-74.84
-71.34
-62.53
-49.30
-33.20
-15.99
0.87
16.36
29.91
41.21
50.10
56.47
60.40
62.15
62.13
60.82
58.63
55.90
52.87
49.77
46.76
44.02
41.71
39.88
38.45
37.26
35.99
34.33
32.02
28.95
25.20
20.99
16.48
11.76
6.81
1.51
-4.11
-9.83
-15.32
-20.22
-24.40
-28.10
-31.75
-35.89
-40.98
-47.27
-54.67
-62.77
-70.71
-77.19
-80.66
-79.71
-73.54
-62.35
-47.30
-30.26
-13.17
2.47
15.84
26.80
35.52
42.22
46.91
49.54
50.10
48.82
46.24
42.99
39.72
36.80
34.38
32.37
30.62
28.96
27.31
25.68
24.10
22.56
21.01
19.35
17.38
14.90
11.83
8.13
3.95
-0.44
-4.74
-8.74
-12.36
-15.65
-18.78
-21.89
-25.23
-29.04
-33.63
-39.16
-45.45
-51.90
-57.41
-60.68
-60.49
-56.15
-47.63
-35.69
-21.61
-6.89
7.14
19.51
29.68
37.43
42.68
45.44
45.79
43.92
40.32
35.64
30.71
26.22
22.63
20.01
18.17
16.74
15.35
13.77
11.93
10.02
8.27
6.83
5.64
4.39
2.63
0.06
-3.34
-7.23
-11.09
-14.48
-17.25
-19.65
-22.16
-25.33
-29.64
-35.26
-42.07
-49.58
-56.89
-62.75
-65.83
-64.98
-59.63
-49.97
-36.90
-21.87
-6.46
7.94
20.39
30.46
38.12
43.58
47.04
48.68
48.61
47.03
44.23
40.63
36.72
32.95
29.63
26.85
24.61
22.78
21.26
19.95
18.72
17.42
15.81
13.72
11.03
7.80
4.18
0.39
-3.42
-7.20
-10.94
-14.68
-18.40
-22.05
-25.59
-29.12
-32.75
-36.75
-41.42
-46.97
-53.42
-60.48
-67.37
-72.85
-75.48
-73.95
-67.53
-56.40
-41.59
-24.74
-7.58
8.41
22.33
33.76
42.62
49.00
53.03
54.86
54.74
53.08
50.39
47.20
43.90
40.73
37.73
34.89
32.26
29.91
27.99
26.55
25.47
24.49
23.31
21.71
19.55
16.87
13.75
10.24
6.42
2.30
-2.03
-6.49
-10.93
-15.27
-19.45
-23.48
-27.46
-31.59
-36.11
-41.23
-46.92
-52.70
-57.55
-60.23
-59.66
-55.51
-48.34
-39.34
-29.71
-20.10
-10.28
0.60
13.42
28.56
45.47
62.79
78.42
90.08
95.66
93.70
83.95
67.50
46.73
24.72
4.51
-11.59
-22.38
-27.74
-28.33
-25.09
-18.94
-10.69
-1.11
8.94
18.35
25.71
29.46
28.24
21.47
9.95
-4.01
-17.00
-25.50
-27.13
-21.64
-11.10
0.85
10.29
14.36
12.05
4.23
-6.97
-18.96
-29.49
-37.02
-40.81
-40.85
-37.61
-31.83
-24.11
-14.75
-3.70
9.20
23.72
38.87
52.85
63.67
69.88
71.30
68.98
64.66
59.89
55.45
51.22
46.79
42.21
38.21
35.89
35.77
37.05
37.77
35.68
29.60
20.22
10.03
2.05
-1.63
-0.86
2.59
6.06
7.34
5.61
1.49
-3.76
-9.24
-15.02
-21.83
-30.12
-39.14
-46.69
-49.76
-45.85
-34.37
-17.03
2.85
21.80
37.51
49.51
58.45
65.10
69.40
70.34
66.85
58.75
47.24
34.55
23.00
14.00
7.72
3.36
-0.22
-3.83
-7.72
-11.69
-15.55
-19.32
-23.37
-28.11
-33.89
-40.82
-48.74
-57.38
-66.46
-75.82
-85.35
-94.94
-104.43
-113.60
-122.33
-130.72
-139.14
-148.08
-157.85
-168.41
-179.20
-189.22
-197.25
-202.01
-202.39
-197.77
-188.01
-173.56
-155.44
-134.91
-113.15
-90.72
-67.37
-42.31
-14.92
14.50
44.38
72.19
95.46
112.87
124.79
133.00
139.66
146.13
152.30
156.85
158.06
154.98
147.83
137.92
127.07
116.80
107.79
99.66
91.26
81.09
68.00
51.70
33.09
14.06
-3.10
-16.58
-25.79
-31.57
-35.85
-40.85
-48.03
-57.54
-68.16
-77.71
-84.03
-85.55
-81.78
-73.28
-61.23
-47.06
-32.04
-17.17
-3.15
9.51
20.43
29.24
35.65
39.55
40.99
40.23
37.70
33.94
29.49
24.76
20.00
15.34
10.92
6.96
3.63
0.95
-1.35
-3.87
-7.22
-11.65
-16.96
-22.45
-27.42
-31.61
-35.44
-39.85
-45.72
-53.27
-61.82
-70.18
-77.33
-83.01
-87.74
-92.30
-96.99
-101.28
-103.92
-103.54
-99.01
-89.47
-74.02
-51.67
-21.77
15.08
56.39
97.79
134.10
160.92
176.17
180.50
176.65
168.17
158.07
148.19
139.18
131.02
123.54
116.69
110.53
105.11
100.28
95.70
90.96
85.75
79.92
73.49
66.45
58.70
50.11
40.66
30.66
20.80
11.93
4.79
-0.26
-3.43
-5.33
-6.67
-7.98
-9.35
-10.57
-11.22
-10.98
-9.66
-7.34
-4.23
-0.57
3.33
7.10
10.23
12.18
12.47
10.83
7.31
2.21
-3.94
-10.62
-17.44
-24.18
-30.83
-37.53
-44.36
-51.19
-57.56
-62.74
-65.99
-66.86
-65.53
-62.84
-60.13
-58.82
-59.89
-63.46
-68.77
-74.45
-78.93
-81.12
-80.64
-77.97
-74.22
-70.83
-69.17
-70.23
-74.00
-79.20
-83.14
-82.17
-72.82
-53.28
-24.59
8.92
40.87
65.06
77.68
78.80
71.95
62.27
54.34
50.47
50.49
52.64
54.94
56.18
55.97
54.42
51.90
49.20
48.05
51.03
60.83
78.67
103.18
130.24
154.42
170.82
176.86
172.63
159.98
141.11
117.46
89.50
57.40
21.87
-15.59
-52.84
-87.92
-119.37
-146.42
-168.65
-185.66
-196.82
-201.45
-199.18
-190.27
-175.83
-157.65
-137.82
-118.24
-100.09
-83.83
-69.31
-56.22
-44.43
-34.13
-25.68
-19.34
-15.06
-12.40
-10.68
-9.29
-7.88
-6.41
-5.11
-4.24
-3.94
-4.24
-5.08
-6.51
-8.59
-11.45
-15.08
-19.25
-23.50
-27.31
-30.30
-32.44
-34.11
-36.01
-38.92
-43.46
-49.82
-57.55
-65.58
-72.35
-76.11
-75.47
-69.79
-59.40
-45.51
-29.80
-13.88
1.07
14.43
25.91
35.27
42.21
46.42
47.79
46.59
43.48
39.25
34.70
30.30
26.31
22.82
19.87
17.51
15.83
14.79
14.26
13.91
13.29
12.00
9.72
6.36
1.99
-3.12
-8.58
-14.09
-19.47
-24.84
-30.54
-37.11
-44.99
-54.16
-63.93
-72.92
-79.38
-81.60
-78.46
-69.71
-55.94
-38.40
-18.69
1.52
20.73
37.72
51.71
62.31
69.51
73.54
74.78
73.66
70.65
66.28
61.15
55.76
50.52
45.68
41.38
37.74
34.88
32.80
31.33
30.06
28.37
25.71
21.76
16.54
10.39
3.80
-2.74
-8.95
-14.83
-20.67
-27.05
-34.60
-43.80
-54.68
-66.51
-77.75
-86.37
-90.35
-88.26
-79.82
-65.91
-48.27
-28.91
-9.57
8.56
24.88
39.21
51.46
61.52
69.18
74.27
76.81
77.00
75.34
72.45
68.85
64.93
60.78
56.39
51.78
47.18
42.94
39.38
36.59
34.23
31.65
28.16
23.35
17.30
10.50
3.64
-2.68
-8.28
-13.37
-18.54
-24.49
-31.88
-41.06
-51.86
-63.43
-74.21
-82.18
-85.34
-82.32
-72.87
-57.86
-39.06
-18.63
1.57
20.20
36.49
50.08
60.74
68.28
72.56
73.71
72.16
68.60
63.81
58.42
52.86
47.32
41.89
36.67
31.87
27.77
24.53
22.10
20.14
18.13
15.52
11.93
7.28
1.75
-4.27
-10.30
-15.98
-21.12
-25.83
-30.50
-35.64
-41.76
-49.01
-56.93
-64.35
-69.56
-70.70
-66.39
-56.22
-40.90
-22.15
-2.05
17.46
35.00
49.84
61.68
70.41
75.99
78.42
77.99
75.23
70.97
66.01
60.98
56.17
51.57
47.03
42.46
37.94
33.72
30.03
27.01
24.52
22.15
19.40
15.84
11.27
5.88
0.06
-5.73
-11.19
-16.30
-21.36
-26.88
-33.45
-41.45
-50.79
-60.70
-69.70
-75.85
-77.36
-73.11
-63.02
-48.09
-30.01
-10.56
8.67
26.59
42.38
55.44
65.24
71.46
74.08
73.56
70.74
66.60
62.02
57.54
53.33
49.28
45.25
41.22
37.43
34.21
31.82
30.24
29.11
27.89
26.01
23.16
19.25
14.46
9.04
3.23
-2.79
-8.90
-15.06
-21.38
-28.12
-35.62
-44.04
-53.21
-62.27
-69.80
-74.12
-73.80
-68.15
-57.49
-43.03
-26.38
-9.15
7.48
22.70
36.01
46.90
54.93
59.76
61.40
60.27
57.11
52.80
48.09
43.46
39.10
35.00
31.10
27.34
23.81
20.64
17.99
15.84
13.94
11.84
9.00
5.07
0.09
-5.52
-11.18
-16.34
-20.80
-24.69
-28.47
-32.63
-37.66
-43.79
-50.88
-58.43
-65.47
-70.68
-72.75
-70.65
-63.94
-52.92
-38.52
-22.03
-4.88
11.67
26.60
39.10
48.66
54.97
57.91
57.68
54.70
49.70
43.57
37.25
31.48
26.67
22.87
19.83
17.31
15.18
13.49
12.35
11.70
11.25
10.53
9.07
6.62
3.28
-0.59
-4.60
-8.52
-12.34
-16.33
-20.82
-26.10
-32.29
-39.25
-46.55
-53.39
-58.63
-60.99
-59.39
-53.29
-42.89
-29.11
-13.24
3.32
19.42
34.22
47.20
57.92
66.01
71.21
73.46
73.04
70.51
66.63
62.08
57.30
52.42
47.32
41.95
36.42
31.18
26.84
23.85
22.21
21.28
20.08
17.56
13.16
6.98
-0.27
-7.64
-14.20
-19.47
-23.39
-26.29
-28.77
-31.54
-35.36
-40.72
-47.74
-55.79
-63.55
-69.19
-70.88
-67.36
-58.36
-44.66
-27.86
-9.88
7.50
22.91
35.57
45.16
51.78
55.74
57.47
57.52
56.39
54.55
52.29
49.77
46.90
43.48
39.29
34.27
28.59
22.78
17.46
13.28
10.59
9.32
8.91
8.50
7.18
4.32
-0.19
-5.92
-12.11
-18.04
-23.31
-27.99
-32.50
-37.42
-43.22
-49.96
-57.26
-64.25
-69.71
-72.30
-70.93
-65.01
-54.68
-40.84
-24.90
-8.45
7.14
20.92
32.44
41.65
48.73
53.84
56.98
57.99
56.66
52.99
47.37
40.52
33.39
26.80
21.23
16.76
13.22
10.37
8.08
6.30
4.91
3.63
1.97
-0.59
-4.41
-9.56
-15.72
-22.36
-28.95
-35.08
-40.61
-45.68
-50.61
-55.88
-61.98
-69.32
-78.03
-87.84
-97.93
-106.94
-113.28
-115.43
-112.45
-104.18
-91.28
-74.94
-56.61
-37.66
-19.31
-2.61
11.52
22.34
29.51
33.21
34.14
33.42
32.21
31.39
31.35
32.00
32.88
33.50
33.48
32.74
31.50
30.07
28.70
27.40
25.94
23.92
20.98
16.95
12.00
6.57
1.23
-3.48
-7.25
-10.15
-12.57
-15.12
-18.49
-23.22
-29.43
-36.64
-43.76
-49.22
-51.38
-48.95
-41.50
-29.55
-14.50
1.78
17.47
31.21
42.37
50.87
57.08
61.38
64.09
65.32
65.11
63.63
61.19
58.31
55.63
53.65
52.61
52.44
52.84
53.44
53.96
54.23
54.20
53.79
52.92
51.44
49.24
46.24
42.42
37.72
32.14
25.74
18.62
10.99
3.10
-4.83
-12.68
-20.38
-27.98
-35.54
-43.03
-50.28
-56.75
-61.55
-63.57
-61.80
-55.69
-45.46
-32.12
-17.19
-2.30
11.23
22.58
31.35
37.50
41.02
42.01
40.67
37.36
32.65
27.20
21.63
16.36
11.67
7.60
4.10
1.05
-1.63
-4.10
-6.45
-8.78
-11.21
-13.81
-16.66
-19.86
-23.45
-27.33
-31.26
-34.85
-37.64
-39.34
-39.89
-39.56
-38.89
-38.54
-39.05
-40.80
-43.79
-47.70
-51.86
-55.30
-56.84
-55.36
-50.06
-40.85
-28.42
-14.09
0.51
13.86
24.88
32.95
37.83
39.59
38.48
35.00
29.95
24.33
19.07
14.80
11.71
9.63
8.18
7.09
6.27
5.80
5.76
6.10
6.59
6.89
6.60
5.43
3.34
0.45
-2.87
-6.23
-9.27
-11.87
-14.10
-16.24
-18.59
-21.40
-24.81
-28.64
-32.41
-35.32
-36.35
-34.45
-28.91
-19.61
-7.16
7.17
21.81
35.34
46.77
55.68
62.12
66.30
68.44
68.57
66.74
63.13
58.19
52.59
47.02
42.03
37.90
34.71
32.39
30.91
30.25
30.35
31.03
31.97
32.75
33.00
32.48
31.20
29.32
27.06
24.60
21.94
18.83
14.78
9.30
2.13
-6.49
-15.58
-23.69
-29.21
-30.88
-28.18
-21.46
-11.81
-0.69
10.32
19.86
26.90
30.80
31.32
28.66
23.36
16.21
8.07
-0.27
-8.20
-15.19
-20.86
-25.05
-27.80
-29.46
-30.55
-31.58
-32.87
-34.40
-35.90
-37.07
-37.72
-37.96
-38.12
-38.58
-39.64
-41.43
-43.96
-47.10
-50.63
-54.09
-56.73
-57.60
-55.76
-50.55
-41.89
-30.34
-17.00
-3.16
10.03
21.75
31.44
38.69
43.27
45.02
43.99
40.54
35.29
29.02
22.51
16.37
10.96
6.41
2.62
-0.55
-3.32
-5.87
-8.31
-10.74
-13.25
-15.92
-18.83
-22.12
-25.87
-30.14
-35.02
-40.57
-46.75
-53.33
-59.81
-65.28
-68.63
-68.71
-64.72
-56.51
-44.63
-30.26
-14.91
-0.08
13.06
23.74
31.59
36.54
38.69
38.33
35.89
32.00
27.35
22.60
18.22
14.49
11.43
8.92
6.77
4.74
2.61
0.19
-2.61
-5.82
-9.33
-12.96
-16.59
-20.19
-23.90
-27.97
-32.72
-38.50
-45.46
-53.40
-61.52
-68.47
-72.67
-72.62
-67.46
-57.31
-43.14
-26.56
-9.32
7.09
21.62
33.68
43.00
49.58
53.50
54.91
54.03
51.20
46.79
41.29
35.21
29.07
23.27
18.10
13.61
9.74
6.33
3.18
0.11
-3.05
-6.43
-10.17
-14.34
-18.89
-23.76
-28.82
-33.95
-39.15
-44.59
-50.62
-57.55
-65.49
-74.04
-82.15
-88.28
-90.72
-88.14
-80.00
-66.78
-49.78
-30.73
-11.29
7.19
23.73
37.61
48.33
55.52
59.13
59.46
57.11
52.93
47.79
42.38
37.16
32.33
28.03
24.36
21.45
19.36
18.02
17.14
16.17
14.56
11.89
8.05
3.24
-2.11
-7.59
-12.92
-18.09
-23.31
-28.96
-35.55
-43.45
-52.68
-62.65
-72.08
-79.12
-81.85
-78.84
-69.62
-54.84
-36.03
-15.18
5.85
25.57
43.02
57.65
69.14
77.31
82.08
83.58
82.23
78.71
73.85
68.44
63.00
57.74
52.59
47.41
42.22
37.28
33.00
29.69
27.26
25.25
22.88
19.42
14.46
8.09
0.73
-7.03
-14.74
-22.20
-29.48
-36.82
-44.56
-53.03
-62.43
-72.73
-83.46
-93.47
-101.10
-104.49
-102.00
-92.87
-77.38
-56.90
-33.42
-9.16
14.03
34.78
52.26
66.14
76.29
82.87
86.15
86.65
85.00
81.83
77.68
72.97
67.91
62.72
57.62
52.93
48.97
45.95
43.84
42.34
41.03
39.48
37.43
34.85
31.84
28.50
24.78
20.41
14.99
8.18
-0.10
-9.53
-19.51
-29.32
-38.45
-46.71
-54.25
-61.40
-68.60
-76.26
-84.66
-93.81
-103.30
-112.10
-118.63
-120.95
-117.38
-107.03
-90.16
-68.20
-43.33
-17.92
6.06
27.24
44.93
58.97
69.44
76.56
80.58
81.77
80.45
77.06
72.13
66.34
60.38
54.86
50.23
46.70
44.20
42.53
41.27
40.00
38.34
35.98
32.78
28.77
24.08
18.86
13.28
7.45
1.46
-4.58
-10.56
-16.34
-21.76
-26.71
-31.19
-35.26
-39.16
-43.21
-47.89
-53.63
-60.59
-68.44
-76.11
-81.98
-84.15
-81.06
-71.97
-57.13
-37.83
-15.91
6.72
28.35
47.73
64.01
76.64
85.36
90.22
91.60
90.21
86.91
82.56
77.77
72.92
68.11
63.33
58.63
54.14
50.10
46.67
43.93
41.75
39.82
37.72
35.02
31.35
26.54
20.72
14.24
7.60
1.23
-4.68
-10.23
-15.68
-21.27
-27.02
-32.67
-37.86
-42.33
-46.16
-49.79
-53.87
-59.02
-65.51
-73.06
-80.71
-86.96
-90.08
-88.47
-81.14
-67.96
-49.67
-27.76
-4.08
19.56
41.62
61.08
77.38
90.30
99.97
106.62
110.46
111.67
110.40
106.91
101.63
95.15
88.10
80.95
73.92
67.04
60.38
54.07
48.39
43.53
39.40
35.48
31.03
25.33
17.95
9.02
-0.94
-11.32
-21.65
-31.71
-41.57
-51.29
-60.84
-70.04
-78.59
-86.27
-92.96
-98.73
-103.73
-108.14
-112.13
-115.87
-119.68
-123.94
-129.00
-134.81
-140.68
-145.23
-146.63
-143.23
-134.05
-119.23
-99.94
-78.00
-55.22
-33.03
-12.36
6.25
22.43
35.82
46.19
53.59
58.40
61.37
63.28
64.72
65.91
66.81
67.33
67.57
67.92
68.96
71.13
74.46
78.53
82.56
85.63
87.02
86.35
83.67
79.47
74.42
69.32
64.79
61.08
57.92
54.53
49.89
43.15
34.01
22.96
11.12
-0.20
-10.03
-18.04
-24.61
-30.57
-36.79
-43.86
-51.94
-60.63
-69.02
-75.88
-79.71
-79.12
-73.12
-61.48
-44.90
-24.89
-3.49
17.26
35.58
50.28
60.69
66.63
68.23
65.95
60.47
52.65
43.45
33.81
24.60
16.50
10.00
5.40
2.77
1.93
2.55
4.06
5.89
7.48
8.35
8.09
6.37
2.93
-2.38
-9.36
-17.58
-26.26
-34.55
-41.72
-47.38
-51.52
-54.41
-56.67
-59.09
-62.55
-67.88
-75.38
-84.58
-94.03
-101.55
-104.93
-102.65
-94.36
-81.00
-64.30
-46.22
-28.50
-12.41
1.22
11.86
19.31
23.65
25.23
24.60
22.41
19.13
15.17
10.79
6.20
1.61
-2.74
-6.60
-9.79
-12.16
-13.74
-14.60
-14.90
-14.81
-14.41
-13.79
-13.07
-12.45
-12.18
-12.58
-13.81
-15.90
-18.73
-22.04
-25.53
-29.02
-32.43
-35.90
-39.77
-44.45
-50.27
-57.19
-64.63
-71.42
-76.05
-76.99
-73.13
-64.12
-50.45
-33.31
-14.38
4.60
22.14
37.24
49.43
58.66
65.17
69.29
71.26
71.31
69.69
66.75
62.95
58.82
54.79
51.11
47.80
44.76
41.81
38.87
35.96
33.16
30.54
28.12
25.74
23.12
19.98
16.06
11.34
6.00
0.37
-5.18
-10.37
-15.09
-19.43
-23.59
-27.83
-32.46
-37.82
-44.15
-51.46
-59.29
-66.62
-72.03
-74.00
-71.44
-64.05
-52.43
-37.85
-21.87
-5.86
9.10
22.27
33.15
41.34
46.62
49.04
48.97
47.04
44.00
40.51
36.99
33.60
30.34
27.15
24.04
21.11
18.57
16.58
15.21
14.32
13.50
12.27
10.17
6.95
2.69
-2.28
-7.46
-12.35
-16.66
-20.29
-23.38
-26.26
-29.39
-33.30
-38.32
-44.41
-50.91
-56.58
-59.91
-59.51
-54.60
-45.28
-32.44
-17.47
-1.78
13.41
27.25
39.15
48.66
55.49
59.47
60.74
59.81
57.38
54.23
50.91
47.68
44.47
41.03
37.18
32.92
28.51
24.29
20.55
17.40
14.73
12.28
9.67
6.61
2.93
-1.37
-6.12
-11.09
-16.04
-20.77
-25.19
-29.36
-33.49
-37.94
-43.20
-49.60
-57.06
-64.91
-71.83
-76.20
-76.51
-71.92
-62.50
-49.16
-33.34
-16.60
-0.30
14.58
27.49
38.17
46.59
52.79
56.81
58.74
58.67
56.91
53.88
50.12
46.14
42.24
38.49
34.79
31.05
27.31
23.77
20.74
18.39
16.65
15.20
13.56
11.32
8.27
4.42
-0.03
-4.82
-9.69
-14.52
-19.29
-24.03
-28.83
-33.82
-39.18
-45.19
-52.12
-59.97
-68.27
-75.88
-81.22
-82.62
-78.90
-69.80
-56.09
-39.30
-21.25
-3.52
12.69
26.67
38.00
46.51
52.22
55.35
56.31
55.65
53.89
51.52
48.88
46.17
43.47
40.75
37.98
35.18
32.45
29.95
27.85
26.19
24.85
23.61
22.17
20.20
17.50
13.93
9.49
4.31
-1.43
-7.44
-13.44
-19.18
-24.52
-29.49
-34.33
-39.46
-45.36
-52.36
-60.38
-68.70
-75.94
-80.43
-80.59
-75.50
-65.23
-50.77
-33.80
-16.07
0.97
16.40
29.85
41.18
50.26
56.82
60.62
61.59
60.02
56.55
52.02
47.16
42.48
38.16
34.19
30.51
27.14
24.22
21.88
20.13
18.87
17.87
16.85
15.57
13.86
11.65
8.87
5.45
1.39
-3.23
-8.25
-13.35
-18.25
-22.79
-27.02
-31.19
-35.71
-40.91
-46.98
-53.76
-60.61
-66.53
-70.26
-70.62
-66.76
-58.48
-46.33
-31.47
-15.44
0.30
14.57
26.66
36.26
43.34
47.98
50.31
50.48
48.73
45.46
41.22
36.55
32.03
28.05
24.85
22.46
20.78
19.58
18.64
17.70
16.62
15.33
13.82
12.06
9.96
7.35
4.08
0.12
-4.36
-9.07
-13.64
-17.89
-21.83
-25.68
-29.84
-34.65
-40.34
-46.90
-54.05
-61.08
-66.95
-70.40
-70.26
-65.83
-57.12
-44.95
-30.70
-15.84
-1.57
11.32
22.47
31.68
38.71
43.30
45.33
44.93
42.62
39.18
35.39
31.78
28.58
25.74
23.14
20.70
18.44
16.47
14.84
13.50
12.27
10.97
9.39
7.37
4.79
1.62
-2.12
-6.29
-10.65
-14.88
-18.72
-22.12
-25.27
-28.59
-32.61
-37.80
-44.30
-51.84
-59.57
-66.23
-70.41
-70.89
-66.97
-58.72
-46.85
-32.57
-17.21
-1.98
12.13
24.47
34.60
42.31
47.57
50.54
51.50
50.79
48.82
46.00
42.75
39.45
36.40
33.73
31.44
29.44
27.64
26.02
24.61
23.41
22.32
21.05
19.22
16.52
12.80
8.21
3.14
-1.96
-6.71
-10.95
-14.73
-18.29
-22.01
-26.26
-31.42
-37.66
-44.81
-52.13
-58.41
-62.08
-61.75
-56.63
-46.81
-33.30
-17.63
-1.43
13.95
27.58
38.93
47.75
53.97
57.63
58.96
58.35
56.32
53.40
50.05
46.56
43.09
39.71
36.50
33.55
30.97
28.88
27.25
25.98
24.89
23.74
22.28
20.34
17.75
14.42
10.31
5.48
0.14
-5.38
-10.76
-15.74
-20.20
-24.15
-27.78
-31.36
-35.26
-39.91
-45.55
-52.12
-59.06
-65.22
-69.15
-69.46
-65.28
-56.57
-44.11
-29.22
-13.43
1.92
15.85
27.74
37.27
44.34
48.97
51.35
51.86
50.99
49.23
47.03
44.62
42.08
39.39
36.56
33.74
31.17
29.12
27.68
26.82
26.30
25.76
24.83
23.26
20.89
17.76
14.04
9.98
5.84
1.76
-2.21
-6.09
-9.95
-13.84
-17.67
-21.38
-24.90
-28.30
-31.81
-35.77
-40.53
-46.26
-52.84
-59.64
-65.62
-69.46
-69.99
-66.50
-58.92
-47.84
-34.39
-19.85
-5.43
7.88
19.38
28.62
35.35
39.54
41.35
41.18
39.58
37.15
34.41
31.73
29.33
27.29
25.64
24.41
23.64
23.37
23.63
24.30
25.12
25.69
25.59
24.55
22.52
19.77
16.71
13.75
11.03
8.34
5.25
1.34
-3.57
-9.25
-15.19
-20.76
-25.55
-29.45
-32.73
-35.83
-39.26
-43.40
-48.39
-54.08
-59.92
-65.03
-68.23
-68.38
-64.60
-56.62
-44.87
-30.46
-14.88
0.36
14.06
25.50
34.37
40.69
44.66
46.54
46.61
45.22
42.75
39.61
36.15
32.67
29.40
26.47
24.03
22.17
20.91
20.21
19.87
19.62
19.08
17.96
16.10
13.52
10.46
7.23
4.13
1.28
-1.40
-4.18
-7.34
-11.05
-15.26
-19.67
-23.93
-27.72
-30.97
-33.79
-36.48
-39.47
-43.23
-48.04
-53.84
-60.04
-65.48
-68.69
-68.32
-63.60
-54.64
-42.42
-28.39
-14.06
-0.62
11.17
20.94
28.53
33.96
37.43
39.18
39.59
39.00
37.62
35.58
32.99
30.00
26.89
23.95
21.42
19.42
17.93
16.83
16.02
15.36
14.76
14.12
13.24
11.92
9.98
7.32
4.01
0.27
-3.63
-7.47
-11.12
-14.65
-18.17
-21.78
-25.49
-29.32
-33.34
-37.71
-42.58
-47.81
-52.83
-56.57
-57.78
-55.35
-48.81
-38.49
-25.42
-11.04
3.24
16.32
27.56
36.66
43.55
48.22
50.74
51.24
49.99
47.35
43.77
39.72
35.63
31.88
28.77
26.46
24.91
23.91
23.14
22.28
21.12
19.61
17.83
15.87
13.77
11.46
8.80
5.65
1.99
-2.13
-6.56
-11.14
-15.75
-20.26
-24.60
-28.71
-32.59
-36.39
-40.43
-45.11
-50.68
-57.01
-63.35
-68.36
-70.50
-68.54
-62.03
-51.45
-38.02
-23.20
-8.39
5.46
17.69
27.94
36.02
41.83
45.48
47.22
47.47
46.57
44.84
42.41
39.43
36.08
32.69
29.60
27.20
25.73
25.22
25.43
25.97
26.36
26.17
25.17
23.31
20.67
17.40
13.69
9.63
5.32
0.75
-4.09
-9.19
-14.50
-19.86
-25.06
-29.85
-34.08
-37.77
-41.21
-44.84
-49.19
-54.52
-60.63
-66.72
-71.47
-73.40
-71.33
-64.77
-54.10
-40.49
-25.43
-10.31
3.83
16.43
27.21
36.03
42.75
47.22
49.44
49.62
48.20
45.72
42.72
39.58
36.48
33.51
30.74
28.35
26.59
25.67
25.61
26.18
26.91
27.29
26.86
25.46
23.15
20.22
17.01
13.75
10.55
7.35
3.91
0.03
-4.41
-9.32
-14.44
-19.43
-24.03
-28.15
-31.92
-35.65
-39.72
-44.54
-50.31
-56.97
-64.03
-70.54
-75.22
-76.71
-73.97
-66.57
-54.92
-40.08
-23.57
-6.93
8.56
22.01
32.91
41.09
46.62
49.68
50.63
49.87
47.88
45.06
41.77
38.22
34.63
31.21
28.24
25.97
24.56
23.98
23.98
24.15
24.02
23.19
21.49
18.98
15.88
12.51
9.14
5.87
2.59
-0.91
-4.86
-9.26
-13.92
-18.54
-22.76
-26.46
-29.76
-32.96
-36.51
-40.83
-46.18
-52.50
-59.24
-65.33
-69.38
-69.97
-66.19
-57.91
-45.92
-31.61
-16.49
-1.87
11.43
22.96
32.55
40.06
45.40
48.51
49.46
48.52
46.07
42.65
38.78
34.94
31.49
28.58
26.21
24.27
22.61
21.11
19.73
18.43
17.18
15.87
14.37
12.53
10.20
7.30
3.80
-0.23
-4.66
-9.28
-13.84
-18.14
-22.11
-25.81
-29.47
-33.45
-38.05
-43.37
-49.21
-54.92
-59.56
-62.03
-61.34
-56.93
-48.81
-37.56
-24.19
-9.94
3.99
16.61
27.22
35.38
40.97
44.01
44.74
43.49
40.70
36.88
32.55
28.25
24.36
21.10
18.46
16.26
14.30
12.41
10.64
9.16
8.09
7.38
6.71
5.58
3.51
0.26
-4.04
-9.00
-14.08
-18.85
-23.06
-26.73
-30.12
-33.67
-37.87
-43.10
-49.41
-56.24
-62.54
-66.88
-67.89
-64.79
-57.54
-46.84
-33.86
-19.90
-6.03
6.90
18.34
27.88
35.24
40.25
42.87
43.30
41.92
39.26
35.83
32.09
28.32
24.71
21.38
18.46
16.09
14.33
13.21
12.54
12.02
11.29
9.97
7.81
4.67
0.61
-4.20
-9.48
-14.90
-20.20
-25.24
-30.12
-35.09
-40.54
-46.82
-54.02
-61.83
-69.46
-75.60
-78.82
-77.90
-72.18
-61.88
-47.97
-31.97
-15.50
0.13
14.07
25.90
35.48
42.74
47.59
50.05
50.24
48.58
45.61
42.01
38.31
34.89
31.93
29.49
27.57
26.16
25.29
24.92
24.94
25.11
25.03
24.28
22.43
19.28
14.95
9.86
4.56
-0.44
-4.95
-9.10
-13.32
-18.19
-24.24
-31.70
-40.36
-49.48
-57.84
-63.94
-66.34
-64.03
-56.73
-45.03
-30.14
-13.64
2.96
18.46
32.05
43.29
51.96
57.99
61.42
62.46
61.46
58.99
55.66
52.11
48.76
45.90
43.55
41.62
40.01
38.60
37.30
35.98
34.52
32.79
30.75
28.44
25.95
23.28
20.33
16.92
12.87
8.16
2.93
-2.54
-8.00
-13.28
-18.40
-23.48
-28.75
-34.53
-41.08
-48.58
-56.88
-65.34
-72.77
-77.67
-78.58
-74.58
-65.64
-52.62
-36.99
-20.31
-3.79
11.85
26.27
39.24
50.43
59.27
65.27
68.24
68.43
66.58
63.59
60.26
57.09
54.26
51.73
49.49
47.56
46.06
45.04
44.43
43.98
43.28
41.91
39.52
36.02
31.56
26.50
21.30
16.37
11.93
7.93
4.06
-0.07
-4.69
-9.81
-15.20
-20.45
-25.24
-29.47
-33.32
-37.20
-41.59
-46.87
-53.29
-60.76
-68.77
-76.34
-82.09
-84.46
-82.15
-74.57
-62.08
-45.93
-27.93
-9.94
6.57
20.73
32.27
41.18
47.61
51.68
53.56
53.51
52.00
49.57
46.78
44.02
41.46
39.07
36.83
34.86
33.35
32.52
32.32
32.42
32.24
31.19
28.89
25.38
21.00
16.23
11.51
7.07
2.93
-0.95
-4.64
-8.20
-11.69
-15.24
-19.02
-23.10
-27.49
-32.09
-36.85
-41.81
-47.20
-53.19
-59.70
-66.12
-71.33
-73.88
-72.55
-66.67
-56.48
-42.92
-27.40
-11.33
4.13
18.20
30.34
40.13
47.30
51.69
53.33
52.58
50.05
46.54
42.79
39.35
36.55
34.42
32.89
31.81
31.15
30.90
31.03
31.36
31.60
31.39
30.43
28.65
26.17
23.28
20.15
16.81
13.08
8.72
3.63
-2.09
-8.06
-13.84
-19.00
-23.39
-27.13
-30.58
-34.20
-38.50
-43.77
-50.08
-57.04
-63.82
-69.23
-71.90
-70.69
-65.00
-55.06
-41.80
-26.64
-11.09
3.62
16.64
27.57
36.21
42.45
46.18
47.51
46.76
44.49
41.38
38.01
34.73
31.67
28.87
26.41
24.48
23.31
23.00
23.50
24.48
25.54
26.25
26.29
25.45
23.67
21.06
17.85
14.38
10.96
7.74
4.63
1.33
-2.48
-6.95
-11.95
-17.07
-21.83
-25.90
-29.30
-32.32
-35.48
-39.27
-44.02
-49.73
-55.97
-61.88
-66.30
-68.00
-65.99
-59.85
-49.87
-36.97
-22.45
-7.62
6.41
18.87
29.26
37.32
42.87
45.87
46.51
45.21
42.60
39.33
35.94
32.74
29.87
27.32
25.07
23.22
21.95
21.41
21.55
22.11
22.60
22.51
21.48
19.46
16.68
13.48
10.20
6.96
3.74
0.37
-3.28
-7.20
-11.28
-15.27
-19.00
-22.31
-25.15
-27.65
-30.05
-32.75
-36.20
-40.73
-46.30
-52.34
-57.74
-61.10
-61.11
-56.93
-48.56
-36.75
-22.86
-8.47
4.94
16.33
25.15
31.30
35.06
36.85
37.08
36.11
34.23
31.70
28.85
26.02
23.56
21.71
20.59
20.07
19.91
19.84
19.57
18.97
18.01
16.74
15.23
13.52
11.59
9.40
6.97
4.33
1.57
-1.25
-4.16
-7.24
-10.60
-14.23
-18.01
-21.68
-25.04
-28.01
-30.82
-33.91
-37.79
-42.66
-48.23
-53.63
-57.58
-58.83
-56.53
-50.53
-41.41
-30.23
-18.16
-6.23
4.80
14.48
22.47
28.55
32.53
34.37
34.22
32.47
29.71
26.57
23.61
21.13
19.24
17.81
16.62
15.57
14.62
13.75
12.95
12.12
11.08
9.66
7.79
5.50
2.89
0.07
-2.94
-6.10
-9.39
-12.75
-16.08
-19.26
-22.26
-25.12
-28.01
-31.20
-34.99
-39.61
-45.05
-50.90
-56.28
-60.03
-61.01
-58.53
-52.52
-43.62
-32.87
-21.38
-10.04
0.59
10.18
18.49
25.28
30.27
33.27
34.23
33.36
31.09
27.94
24.54
21.42
18.95
17.26
16.26
15.66
15.21
14.70
14.11
13.49
12.86
12.14
11.14
9.61
7.35
4.30
0.59
-3.55
-7.82
-11.99
-15.93
-19.62
-23.13
-26.59
-30.16
-34.07
-38.57
-43.87
-49.83
-55.80
-60.66
-63.00
-61.67
-56.15
-46.82
-34.72
-21.22
-7.56
5.40
17.14
27.33
35.74
42.10
46.28
48.29
48.34
46.82
44.20
40.96
37.50
34.16
31.15
28.56
26.43
24.71
23.34
22.25
21.38
20.68
20.04
19.28
18.17
16.45
13.92
10.56
6.54
2.17
-2.27
-6.59
-10.82
-15.12
-19.67
-24.65
-30.18
-36.34
-43.04
-49.93
-56.28
-61.01
-62.95
-61.19
-55.49
-46.29
-34.62
-21.70
-8.68
3.62
14.64
24.01
31.51
37.07
40.72
42.60
42.93
41.97
40.04
37.57
35.00
32.72
31.03
30.01
29.52
29.36
29.26
29.04
28.62
27.90
26.78
25.16
22.90
19.89
16.06
11.50
6.42
1.18
-3.86
-8.40
-12.40
-15.99
-19.48
-23.21
-27.48
-32.44
-38.14
-44.50
-51.23
-57.78
-63.28
-66.62
-66.71
-62.85
-54.98
-43.76
-30.37
-16.21
-2.55
9.74
20.20
28.75
35.45
40.40
43.60
45.10
45.03
43.71
41.61
39.29
37.18
35.55
34.46
33.82
33.46
33.22
32.91
32.35
31.38
29.93
27.96
25.50
22.61
19.35
15.69
11.63
7.20
2.47
-2.42
-7.30
-12.01
-16.45
-20.56
-24.40
-28.07
-31.75
-35.70
-40.24
-45.67
-52.05
-58.99
-65.55
-70.32
-71.80
-68.94
-61.46
-50.03
-35.98
-20.86
-5.96
7.84
20.06
30.37
38.50
44.12
47.09
47.54
45.97
43.12
39.84
36.85
34.53
32.95
31.91
31.12
30.35
29.54
28.74
28.08
27.55
27.00
26.17
24.80
22.70
19.92
16.67
13.19
9.69
6.21
2.64
-1.21
-5.43
-9.96
-14.55
-18.84
-22.58
-25.70
-28.41
-31.15
-34.41
-38.61
-43.91
-50.21
-57.01
-63.53
-68.68
-71.30
-70.39
-65.42
-56.55
-44.59
-30.76
-16.38
-2.50
10.16
21.24
30.51
37.81
42.98
45.97
46.93
46.20
44.26
41.57
38.49
35.29
32.22
29.49
27.30
25.75
24.75
24.10
23.48
22.64
21.43
19.85
17.93
15.75
13.30
10.61
7.67
4.55
1.28
-2.05
-5.36
-8.57
-11.56
-14.30
-16.84
-19.38
-22.31
-26.07
-31.10
-37.48
-44.87
-52.29
-58.31
-61.43
-60.51
-55.21
-46.02
-34.11
-20.88
-7.50
5.19
16.72
26.75
34.90
40.85
44.41
45.71
45.21
43.57
41.43
39.16
36.91
34.66
32.41
30.24
28.30
26.74
25.66
24.97
24.48
23.98
23.24
22.05
20.30
17.94
15.08
11.93
8.74
5.67
2.70
-0.32
-3.65
-7.43
-11.61
-15.92
-20.01
-23.56
-26.49
-28.93
-31.23
-33.86
-37.26
-41.68
-47.11
-53.09
-58.79
-63.03
-64.64
-62.75
-57.04
-47.88
-36.25
-23.42
-10.63
1.13
11.29
19.52
25.75
29.95
32.20
32.67
31.74
29.92
27.80
25.90
24.52
23.73
23.38
23.31
23.32
23.32
23.26
23.08
22.73
22.12
21.12
19.70
17.82
15.51
12.79
9.61
5.96
1.79
-2.84
-7.80
-12.84
-17.68
-22.11
-26.05
-29.63
-33.19
-37.07
-41.45
-46.12
-50.42
-53.32
-53.65
-50.57
-43.78
-33.71
-21.40
-8.16
4.74
16.31
25.94
33.33
38.42
41.23
41.89
40.63
37.87
34.14
30.16
26.62
24.02
22.58
22.15
22.35
22.74
22.94
22.75
22.19
21.30
20.14
18.67
16.74
14.19
10.87
6.76
2.01
-3.11
-8.24
-13.06
-17.44
-21.38
-25.08
-28.76
-32.72
-37.20
-42.35
-48.13
-54.20
-59.71
-63.52
-64.37
-61.36
-54.24
-43.57
-30.58
-16.70
-3.25
8.92
19.37
27.96
34.69
39.49
42.32
43.20
42.35
40.14
37.12
33.83
30.69
27.92
25.57
23.54
21.77
20.25
19.02
18.11
17.46
16.85
15.95
14.47
12.19
9.08
5.30
1.14
-3.04
-6.94
-10.43
-13.58
-16.70
-20.18
-24.38
-29.50
-35.54
-42.30
-49.37
-56.11
-61.59
-64.74
-64.49
-60.10
-51.55
-39.56
-25.49
-10.89
2.89
14.97
24.99
32.88
38.66
42.36
44.01
43.82
42.18
39.68
36.90
34.31
32.10
30.22
28.46
26.62
24.64
22.60
20.63
18.85
17.22
15.52
13.47
10.76
7.26
3.08
-1.50
-6.11
-10.41
-14.27
-17.79
-21.16
-24.75
-28.91
-33.90
-39.77
-46.29
-52.79
-58.24
-61.49
-61.49
-57.74
-50.38
-40.17
-28.16
-15.45
-2.91
8.77
19.09
27.53
33.71
37.44
38.87
38.43
36.78
34.55
32.15
29.71
27.17
24.47
21.64
18.89
16.54
14.79
13.66
12.88
11.97
10.47
8.06
4.78
0.91
-3.13
-6.97
-10.43
-13.56
-16.63
-20.01
-24.04
-28.91
-34.52
-40.42
-45.82
-49.73
-51.19
-49.49
-44.39
-36.21
-25.77
-14.15
-2.48
8.25
17.35
24.43
29.37
32.18
33.00
32.11
29.93
26.96
23.74
20.67
17.98
15.69
13.68
11.88
10.26
8.89
7.79
6.89
5.95
4.67
2.78
0.11
-3.23
-7.02
-10.94
-14.73
-18.27
-21.66
-25.19
-29.27
-34.29
-40.37
-47.24
-54.09
-59.75
-62.90
-62.54
-58.23
-50.24
-39.47
-27.06
-14.20
-1.83
9.42
19.13
27.04
32.99
36.95
38.99
39.35
38.35
36.36
33.79
31.00
28.35
26.05
24.21
22.81
21.70
20.73
19.72
18.45
16.70
14.24
10.89
6.64
1.69
-3.60
-8.82
-13.68
-18.13
-22.40
-26.91
-32.05
-38.02
-44.64
-51.27
-56.88
-60.29
-60.38
-56.49
-48.58
-37.29
-23.78
-9.39
4.65
17.52
28.79
38.32
46.02
51.74
55.32
56.66
55.96
53.66
50.41
46.83
43.37
40.22
37.45
35.07
33.13
31.69
30.77
30.23
29.77
29.01
27.53
25.03
21.40
16.70
11.23
5.36
-0.47
-5.96
-11.03
-15.85
-20.78
-26.21
-32.48
-39.65
-47.42
-55.07
-61.52
-65.59
-66.18
-62.62
-54.86
-43.48
-29.52
-14.29
0.94
15.14
27.59
37.90
45.93
51.68
55.29
56.94
56.83
55.31
52.78
49.71
46.53
43.59
41.11
39.18
37.83
37.05
36.75
36.78
36.86
36.63
35.71
33.77
30.73
26.69
21.96
16.98
12.07
7.40
2.95
-1.38
-5.75
-10.20
-14.72
-19.25
-23.67
-27.95
-32.11
-36.29
-40.72
-45.77
-51.69
-58.44
-65.52
-71.91
-76.23
-77.12
-73.71
-65.86
-54.25
-40.04
-24.53
-8.89
6.01
19.52
31.17
40.52
47.26
51.33
52.97
52.65
50.94
48.39
45.43
42.40
39.56
37.16
35.38
34.31
33.86
33.79
33.84
33.67
33.04
31.78
29.81
27.15
23.95
20.39
16.69
13.01
9.42
5.85
2.18
-1.67
-5.72
-9.95
-14.22
-18.47
-22.64
-26.79
-31.03
-35.53
-40.48
-46.07
-52.39
-59.21
-65.90
-71.41
-74.44
-73.82
-68.87
-59.69
-47.10
-32.43
-17.09
-2.26
11.23
22.89
32.48
39.85
44.96
47.90
48.91
48.38
46.68
44.20
41.31
38.30
35.47
33.02
31.02
29.43
28.11
26.90
25.67
24.33
22.75
20.82
18.34
15.26
11.71
7.97
4.38
1.15
-1.74
-4.48
-7.34
-10.46
-13.79
-17.14
-20.41
-23.63
-27.04
-31.03
-35.95
-41.95
-48.91
-56.31
-63.31
-68.78
-71.58
-70.71
-65.71
-56.75
-44.63
-30.64
-16.11
-2.19
10.35
21.13
29.91
36.52
40.81
42.72
42.44
40.41
37.28
33.78
30.46
27.69
25.56
23.99
22.79
21.78
20.84
19.92
19.06
18.28
17.51
16.56
15.04
12.61
9.09
4.57
-0.57
-5.80
-10.66
-14.95
-18.73
-22.23
-25.78
-29.66
-34.07
-39.12
-44.81
-50.89
-56.76
-61.35
-63.43
-61.89
-56.16
-46.48
-33.89
-19.86
-5.84
7.11
18.42
27.93
35.58
41.28
44.83
46.09
45.17
42.53
38.91
35.13
31.78
29.10
27.01
25.27
23.65
22.13
20.81
19.87
19.34
19.08
18.75
17.93
16.24
13.53
9.82
5.38
0.60
-4.16
-8.64
-12.79
-16.73
-20.66
-24.79
-29.33
-34.38
-39.92
-45.78
-51.47
-56.24
-59.12
-59.16
-55.71
-48.64
-38.39
-25.93
-12.43
0.91
13.18
23.74
32.28
38.61
42.68
44.52
44.26
42.22
38.95
35.11
31.32
28.02
25.35
23.19
21.29
19.49
17.74
16.18
15.03
14.36
14.05
13.78
13.10
11.56
8.97
5.36
1.00
-3.73
-8.42
-12.77
-16.60
-19.91
-22.90
-25.96
-29.54
-34.03
-39.58
-45.82
-51.93
-56.68
-58.81
-57.37
-52.06
-43.29
-32.03
-19.55
-7.03
4.58
14.69
22.97
29.25
33.44
35.47
35.43
33.58
30.36
26.35
22.22
18.53
15.68
13.80
12.76
12.26
11.95
11.60
11.13
10.62
10.13
9.53
8.62
7.14
4.94
2.12
-1.01
-4.09
-6.90
-9.48
-12.09
-15.09
-18.71
-23.07
-28.15
-33.88
-40.07
-46.35
-51.99
-55.96
-57.15
-54.68
-48.28
-38.37
-25.99
-12.46
0.98
13.37
24.02
32.46
38.40
41.69
42.52
41.34
38.86
35.90
33.07
30.73
28.96
27.60
26.40
25.18
23.83
22.37
20.95
19.63
18.40
17.06
15.25
12.68
9.21
4.99
0.34
-4.35
-8.76
-12.78
-16.44
-19.90
-23.46
-27.42
-32.10
-37.62
-43.74
-49.77
-54.60
-56.98
-55.93
-51.07
-42.68
-31.62
-19.04
-6.05
6.49
18.03
28.14
36.43
42.53
46.12
47.13
45.82
42.79
38.79
34.55
30.56
27.01
23.92
21.26
19.06
17.43
16.47
16.15
16.30
16.69
16.97
16.91
16.25
14.77
12.32
8.83
4.42
-0.66
-6.04
-11.33
-16.27
-20.76
-24.85
-28.73
-32.59
-36.70
-41.32
-46.53
-52.19
-57.70
-62.11
-64.25
-63.08
-58.03
-49.21
-37.35
-23.60
-9.23
4.64
17.20
27.88
36.37
42.54
46.40
48.12
48.01
46.45
43.85
40.59
37.02
33.42
30.09
27.25
25.10
23.75
23.13
23.05
23.23
23.26
22.84
21.76
19.95
17.54
14.73
11.74
8.68
5.46
1.88
-2.26
-6.99
-12.14
-17.31
-22.06
-26.15
-29.67
-32.99
-36.73
-41.41
-47.26
-54.08
-61.15
-67.38
-71.55
-72.58
-69.72
-62.83
-52.25
-38.92
-24.05
-8.99
5.05
17.11
26.63
33.44
37.66
39.60
39.56
37.86
34.74
30.49
25.45
19.96
14.36
8.84
3.50
-1.63
-6.55
-11.25
-15.80
-20.34
-25.13
-30.50
-36.67
-43.65
-51.25
-59.20
-67.29
-75.44
-83.76
-92.46
-101.75
-111.75
-122.40
-133.56
-145.03
-156.65
-168.35
-180.07
-191.76
-203.26
-214.10
-223.38
-229.66
-230.97
-225.19
-210.42
-185.59
-150.82
-107.53
-58.24
-6.08
45.74
94.37
137.58
173.83
202.21
222.34
234.37
238.91
237.04
230.19
219.94
207.86
195.24
182.98
171.52
160.98
151.27
142.21
133.68
125.59
117.79
110.17
102.55
94.78
86.82
78.63
70.24
61.74
53.24
44.87
36.82
29.21
22.04
15.20
8.42
1.46
-5.86
-13.58
-21.62
-29.77
-37.65
-44.69
-50.08
-52.86
-52.17
-47.53
-39.14
-27.87
-15.09
-2.22
9.64
19.85
28.19
34.62
39.18
41.78
42.42
41.26
38.69
35.35
31.92
28.91
26.57
24.90
23.71
22.79
21.94
21.03
19.98
18.75
17.31
15.63
13.60
11.06
7.89
4.02
-0.45
-5.27
-10.11
-14.69
-18.86
-22.67
-26.34
-30.20
-34.56
-39.71
-45.68
-52.14
-58.33
-63.10
-65.24
-63.77
-58.33
-49.27
-37.58
-24.53
-11.36
1.02
12.07
21.58
29.47
35.63
39.93
42.24
42.59
41.24
38.66
35.45
32.18
29.26
26.92
25.21
24.06
23.33
22.87
22.42
21.80
20.85
19.49
17.68
15.46
12.84
9.82
6.38
2.55
-1.63
-6.03
-10.48
-14.86
-19.09
-23.19
-27.29
-31.55
-36.14
-41.20
-46.77
-52.74
-58.77
-64.19
-68.07
-69.33
-67.07
-60.90
-51.08
-38.54
-24.57
-10.45
2.83
14.68
24.80
33.02
39.20
43.23
45.18
45.29
43.99
41.85
39.37
36.98
34.94
33.34
32.17
31.32
30.63
29.91
29.00
27.80
26.27
24.45
22.39
20.09
17.49
14.50
10.98
6.87
2.20
-2.87
-8.08
-13.15
-17.87
-22.21
-26.23
-30.13
-34.14
-38.48
-43.35
-48.88
-54.97
-61.22
-66.85
-70.72
-71.68
-68.86
-62.01
-51.59
-38.67
-24.58
-10.62
2.19
13.26
22.34
29.42
34.59
37.97
39.73
40.04
39.17
37.47
35.37
33.30
31.59
30.42
29.80
29.63
29.77
29.98
30.10
29.92
29.26
28.05
26.25
23.87
20.93
17.41
13.23
8.41
3.09
-2.43
-7.81
-12.71
-17.02
-20.86
-24.48
-28.20
-32.28
-36.90
-42.07
-47.61
-53.02
-57.43
-59.79
-58.99
-54.35
-45.84
-34.25
-20.89
-7.28
5.33
16.17
24.99
31.85
36.91
40.33
42.12
42.28
40.89
38.28
34.96
31.60
28.78
26.87
25.90
25.62
25.66
25.66
25.49
25.16
24.75
24.24
23.35
21.69
18.87
14.65
9.18
2.88
-3.65
-9.85
-15.36
-20.10
-24.30
-28.24
-32.26
-36.60
-41.47
-46.93
-52.83
-58.67
-63.57
-66.37
-65.97
-61.67
-53.44
-42.01
-28.62
-14.66
-1.33
10.60
20.76
29.08
35.58
40.28
43.18
44.31
43.78
41.91
39.18
36.16
33.31
30.89
28.97
27.44
26.17
25.08
24.15
23.36
22.62
21.74
20.41
18.38
15.48
11.69
7.22
2.34
-2.61
-7.35
-11.73
-15.74
-19.53
-23.33
-27.40
-31.98
-37.30
-43.48
-50.38
-57.51
-63.92
-68.35
-69.53
-66.61
-59.37
-48.41
-34.87
-20.13
-5.39
8.45
20.87
31.56
40.34
47.00
51.38
53.51
53.58
52.06
49.51
46.52
43.58
40.92
38.59
36.55
34.70
33.10
31.87
31.19
31.02
31.08
30.88
29.86
27.67
24.35
20.24
15.80
11.39
7.11
2.77
-1.85
-6.90
-12.27
-17.73
-22.94
-27.65
-31.75
-35.31
-38.52
-41.75
-45.36
-49.69
-54.92
-60.92
-67.10
-72.50
-75.89
-76.06
-72.14
-63.94
-52.04
-37.63
-22.20
-7.13
6.57
18.35
28.01
35.54
40.93
44.21
45.48
45.00
43.17
40.55
37.70
35.06
32.92
31.38
30.39
29.84
29.63
29.58
29.55
29.31
28.64
27.35
25.40
22.89
19.95
16.74
13.30
9.61
5.61
1.30
-3.22
-7.72
-11.96
-15.76
-19.09
-22.04
-24.85
-27.83
-31.29
-35.53
-40.69
-46.65
-52.92
-58.59
-62.50
-63.50
-60.78
-54.13
-44.01
-31.43
-17.68
-4.04
8.52
19.29
27.88
34.15
38.08
39.76
39.47
37.63
34.76
31.48
28.31
25.63
23.62
22.22
21.31
20.68
20.19
19.76
19.37
18.94
18.35
17.39
15.82
13.46
10.27
6.37
2.01
-2.57
-7.13
-11.58
-15.91
-20.22
-24.62
-29.27
-34.35
-39.98
-46.02
-52.00
-57.00
-59.91
-59.61
-55.47
-47.48
-36.31
-23.08
-9.03
4.75
17.46
28.60
37.78
44.76
49.41
51.76
52.10
50.91
48.70
45.94
43.01
40.15
37.48
35.06
32.91
31.03
29.37
27.95
26.78
25.80
24.86
23.67
21.95
19.47
16.26
12.55
8.64
4.76
0.92
-3.02
-7.22
-11.79
-16.67
-21.70
-26.69
-31.46
-36.03
-40.50
-45.18
-50.37
-56.25
-62.65
-68.87
-73.71
-75.75
-73.87
-67.54
-57.18
-43.87
-29.04
-14.02
0.24
13.16
24.39
33.66
40.74
45.54
48.18
49.07
48.73
47.68
46.26
44.66
42.93
41.07
39.15
37.29
35.64
34.34
33.41
32.73
32.09
31.17
29.73
27.59
24.75
21.31
17.45
13.35
9.13
4.87
0.57
-3.81
-8.31
-12.93
-17.57
-22.08
-26.34
-30.28
-34.07
-37.99
-42.34
-47.36
-53.07
-59.12
-64.87
-69.37
-71.54
-70.43
-65.49
-56.74
-44.84
-30.88
-16.12
-1.73
11.44
22.86
32.22
39.32
44.11
46.66
47.22
46.20
44.06
41.31
38.35
35.50
32.97
30.88
29.32
28.27
27.69
27.39
27.19
26.85
26.12
24.81
22.82
20.23
17.25
14.18
11.19
8.34
5.42
2.18
-1.64
-6.15
-11.21
-16.52
-21.69
-26.40
-30.58
-34.42
-38.25
-42.45
-47.29
-52.78
-58.58
-64.00
-68.10
-69.81
-68.30
-63.08
-54.26
-42.54
-29.04
-15.03
-1.59
10.49
20.79
29.09
35.33
39.49
41.63
41.99
40.89
38.73
35.96
32.96
30.06
27.52
25.53
24.16
23.37
23.04
22.94
22.84
22.49
21.77
20.55
18.82
16.58
13.89
10.78
7.33
3.57
-0.42
-4.52
-8.53
-12.23
-15.47
-18.25
-20.72
-23.15
-25.90
-29.33
-33.68
-38.98
-44.91
-50.72
-55.40
-57.79
-56.90
-52.26
-44.03
-33.00
-20.41
-7.51
4.59
15.20
23.96
30.74
35.50
38.24
39.04
38.15
36.01
33.20
30.34
27.87
26.00
24.71
23.88
23.34
22.99
22.75
22.58
22.35
21.92
21.16
19.98
18.34
16.21
13.61
10.60
7.24
3.65
-0.10
-3.92
-7.77
-11.65
-15.55
-19.52
-23.66
-28.12
-33.16
-39.02
-45.69
-52.79
-59.44
-64.37
-66.25
-64.09
-57.65
-47.46
-34.76
-21.07
-7.69
4.50
15.13
24.14
31.54
37.28
41.24
43.35
43.72
42.65
40.54
37.86
34.97
32.18
29.69
27.63
26.05
24.93
24.17
23.61
23.07
22.34
21.26
19.74
17.77
15.43
12.83
10.09
7.18
4.03
0.52
-3.43
-7.73
-12.20
-16.59
-20.74
-24.67
-28.57
-32.76
-37.60
-43.30
-49.81
-56.76
-63.33
-68.43
-70.83
-69.48
-63.86
-54.16
-41.28
-26.56
-11.42
3.00
15.96
27.01
35.88
42.38
46.41
48.06
47.75
46.09
43.75
41.24
38.81
36.51
34.29
32.18
30.32
28.86
27.88
27.24
26.68
25.86
24.51
22.56
20.06
17.19
14.11
10.86
7.40
3.65
-0.45
-4.84
-9.37
-13.87
-18.13
-22.08
-25.74
-29.28
-32.99
-37.21
-42.27
-48.26
-55.01
-61.87
-67.88
-71.85
-72.64
-69.47
-62.20
-51.31
-37.87
-23.26
-8.79
4.52
16.05
25.58
33.09
38.60
42.08
43.54
43.12
41.13
38.07
34.58
31.23
28.36
26.11
24.38
23.00
21.79
20.62
19.45
18.27
17.13
16.05
15.00
13.90
12.53
10.64
8.04
4.65
0.62
-3.77
-8.18
-12.38
-16.29
-19.98
-23.59
-27.25
-31.19
-35.60
-40.62
-46.14
-51.65
-56.13
-58.29
-56.99
-51.70
-42.71
-31.09
-18.26
-5.53
6.11
16.12
24.22
30.16
33.75
34.91
33.86
31.16
27.65
24.21
21.43
19.53
18.35
17.55
16.80
15.97
15.06
14.22
13.59
13.16
12.80
12.24
11.16
9.22
6.27
2.29
-2.47
-7.59
-12.60
-17.17
-21.16
-24.65
-27.90
-31.25
-35.06
-39.62
-45.05
-51.09
-57.04
-61.78
-64.01
-62.65
-57.19
-48.03
-36.22
-23.16
-10.16
1.93
12.73
22.10
29.92
35.92
39.76
41.21
40.42
37.90
34.49
31.01
28.07
25.91
24.43
23.35
22.36
21.21
19.81
18.19
16.47
14.75
13.00
11.11
8.86
6.07
2.71
-1.07
-5.03
-8.94
-12.73
-16.50
-20.41
-24.63
-29.20
-34.16
-39.57
-45.49
-51.83
-58.15
-63.50
-66.65
-66.41
-62.06
-53.66
-42.02
-28.44
-14.30
-0.76
11.44
21.91
30.50
37.19
42.03
45.13
46.60
46.62
45.44
43.37
40.81
38.13
35.73
33.83
32.46
31.52
30.77
30.05
29.28
28.49
27.71
26.86
25.70
23.92
21.25
17.61
13.15
8.25
3.33
-1.28
-5.45
-9.31
-13.09
-17.11
-21.64
-26.84
-32.77
-39.31
-46.08
-52.46
-57.53
-60.17
-59.33
-54.37
-45.31
-32.94
-18.61
-3.84
10.09
22.39
32.81
41.33
47.94
52.56
55.13
55.76
54.84
53.02
50.95
49.05
47.43
45.91
44.27
42.38
40.33
38.35
36.69
35.46
34.51
33.50
32.02
29.73
26.52
22.59
18.36
14.34
10.76
7.63
4.66
1.50
-2.10
-6.18
-10.57
-15.02
-19.31
-23.35
-27.19
-30.98
-35.01
-39.58
-44.98
-51.26
-58.20
-65.15
-71.05
-74.66
-74.87
-70.96
-62.87
-51.19
-37.05
-21.85
-6.88
6.83
18.73
28.61
36.44
42.29
46.17
48.16
48.39
47.25
45.25
42.93
40.71
38.74
36.98
35.29
33.62
32.10
30.91
30.20
29.84
29.49
28.66
26.97
24.33
20.93
17.18
13.46
9.99
6.79
3.69
0.47
-3.03
-6.87
-10.96
-15.13
-19.17
-22.97
-26.48
-29.84
-33.26
-37.04
-41.47
-46.72
-52.63
-58.68
-63.95
-67.25
-67.46
-63.80
-56.11
-44.96
-31.41
-16.77
-2.30
10.98
22.42
31.59
38.33
42.68
44.88
45.26
44.31
42.46
40.06
37.45
34.82
32.34
30.13
28.28
26.87
25.95
25.48
25.40
25.54
25.58
25.19
24.04
21.95
19.00
15.43
11.62
7.88
4.34
0.90
-2.65
-6.53
-10.81
-15.33
-19.84
-24.12
-28.08
-31.84
-35.67
-39.86
-44.66
-50.14
-56.15
-62.24
-67.71
-71.62
-72.92
-70.71
-64.50
-54.38
-41.14
-26.05
-10.60
3.85
16.35
26.44
34.07
39.40
42.68
44.11
43.89
42.29
39.72
36.69
33.66
30.96
28.73
26.96
25.61
24.63
23.96
23.55
23.23
22.77
21.94
20.70
19.06
17.14
15.04
12.75
10.16
7.11
3.52
-0.55
-4.87
-9.17
-13.22
-16.89
-20.22
-23.46
-26.94
-31.03
-36.01
-41.92
-48.46
-54.93
-60.30
-63.43
-63.30
-59.32
-51.51
-40.54
-27.56
-13.84
-0.53
11.55
21.90
30.31
36.65
40.87
43.04
43.38
42.28
40.23
37.66
34.90
32.14
29.53
27.24
25.46
24.35
23.94
24.07
24.39
24.48
23.97
22.66
20.60
17.96
15.06
12.17
9.38
6.58
3.56
0.07
-4.02
-8.63
-13.53
-18.39
-22.89
-26.84
-30.20
-33.07
-35.67
-38.35
-41.47
-45.37
-50.14
-55.51
-60.74
-64.73
-66.31
-64.50
-58.91
-49.76
-37.92
-24.61
-11.10
1.59
12.81
22.18
29.48
34.58
37.40
38.03
36.79
34.22
30.98
27.66
24.70
22.33
20.59
19.45
18.84
18.66
18.77
19.03
19.24
19.20
18.73
17.65
15.83
13.30
10.19
6.75
3.27
-0.08
-3.22
-6.19
-9.10
-12.04
-15.06
-18.23
-21.63
-25.40
-29.71
-34.68
-40.19
-45.81
-50.75
-54.01
-54.58
-51.79
-45.50
-36.22
-24.95
-12.93
-1.31
9.06
17.68
24.31
28.88
31.43
32.11
31.17
28.99
26.06
22.94
20.06
17.75
16.16
15.27
14.93
14.91
14.95
14.81
14.35
13.50
12.28
10.78
9.04
7.06
4.71
1.94
-1.32
-5.00
-8.93
-12.94
-16.84
-20.55
-24.11
-27.68
-31.50
-35.86
-40.90
-46.51
-52.19
-57.03
-59.95
-59.92
-56.30
-49.06
-38.72
-26.22
-12.70
0.80
13.40
24.47
33.59
40.51
45.17
47.65
48.14
47.00
44.61
41.45
38.01
34.73
31.91
29.67
27.98
26.65
25.53
24.48
23.44
22.43
21.44
20.35
18.92
16.84
13.86
9.92
5.21
0.10
-4.96
-9.69
-13.99
-18.05
-22.16
-26.66
-31.78
-37.68
-44.30
-51.31
-58.07
-63.55
-66.55
-66.03
-61.35
-52.59
-40.49
-26.36
-11.64
2.32
14.61
24.78
32.73
38.57
42.43
44.41
44.64
43.32
40.84
37.70
34.41
31.30
28.58
26.26
24.35
22.87
21.85
21.21
20.75
20.17
19.20
17.72
15.79
13.50
10.97
8.16
4.96
1.28
-2.89
-7.45
-12.24
-17.10
-21.94
-26.82
-31.91
-37.48
-43.70
-50.48
-57.29
-63.16
-66.81
-67.09
-63.24
-55.27
-43.90
-30.31
-15.85
-1.74
11.12
22.15
31.07
37.79
42.36
44.99
45.91
45.36
43.65
41.05
37.94
34.67
31.65
29.25
27.70
27.04
27.09
27.50
27.88
27.93
27.45
26.41
24.87
22.87
20.44
17.55
14.17
10.26
5.85
1.04
-4.02
-9.19
-14.30
-19.22
-23.89
-28.36
-32.84
-37.57
-42.83
-48.76
-55.26
-61.90
-67.85
-72.05
-73.35
-70.85
-64.17
-53.60
-40.08
-24.98
-9.74
4.48
16.93
27.31
35.61
41.91
46.23
48.58
49.02
47.86
45.58
42.80
40.05
37.63
35.61
33.89
32.38
31.05
30.00
29.30
28.94
28.68
28.17
27.05
25.12
22.46
19.34
16.13
13.18
10.54
8.08
5.47
2.43
-1.21
-5.41
-9.94
-14.53
-18.97
-23.20
-27.34
-31.63
-36.40
-41.92
-48.39
-55.72
-63.46
-70.76
-76.42
-79.17
-77.93
-72.20
-62.21
-48.87
-33.50
-17.50
-2.10
11.84
23.77
33.36
40.48
45.15
47.52
47.92
46.84
44.81
42.38
39.95
37.75
35.83
34.14
32.61
31.33
30.44
30.06
30.17
30.47
30.49
29.82
28.19
25.61
22.28
18.54
14.64
10.73
6.84
2.91
-1.12
-5.32
-9.66
-14.04
-18.28
-22.23
-25.82
-29.20
-32.66
-36.58
-41.30
-46.97
-53.47
-60.30
-66.58
-71.10
-72.61
-70.11
-63.21
-52.37
-38.72
-23.77
-9.02
4.44
15.93
25.20
32.18
36.88
39.42
39.98
38.95
36.85
34.27
31.68
29.42
27.56
26.03
24.76
23.68
22.86
22.38
22.29
22.54
22.95
23.18
22.90
21.83
19.78
16.75
12.88
8.47
3.86
-0.63
-4.84
-8.83
-12.73
-16.77
-21.15
-26.02
-31.44
-37.36
-43.54
-49.41
-54.13
-56.66
-56.07
-51.82
-43.96
-33.18
-20.62
-7.47
5.19
16.63
26.37
34.15
39.86
43.41
44.84
44.36
42.41
39.53
36.34
33.33
30.83
28.94
27.65
26.84
26.35
26.03
25.64
24.97
23.85
22.18
19.96
17.25
14.08
10.45
6.37
1.84
-2.99
-7.86
-12.49
-16.62
-20.18
-23.30
-26.35
-29.75
-33.91
-39.10
-45.29
-52.11
-58.80
-64.32
-67.49
-67.30
-63.19
-55.17
-43.85
-30.30
-15.77
-1.42
11.86
23.50
33.24
40.96
46.65
50.36
52.23
52.45
51.30
49.13
46.30
43.15
39.93
36.88
34.16
31.93
30.23
29.14
28.57
28.31
28.05
27.40
26.02
23.80
20.85
17.44
13.93
10.52
7.19
3.78
0.08
-3.98
-8.34
-12.80
-17.13
-21.20
-24.93
-28.38
-31.65
-35.00
-38.79
-43.47
-49.35
-56.40
-63.99
-70.90
-75.58
-76.58
-72.99
-64.73
-52.53
-37.76
-21.95
-6.48
7.63
19.79
29.75
37.47
43.01
46.50
48.11
48.08
46.77
44.59
42.00
39.43
37.13
35.23
33.69
32.46
31.56
31.07
31.04
31.38
31.80
31.83
31.00
29.03
25.92
21.95
17.56
13.18
9.07
5.29
1.71
-1.95
-5.95
-10.41
-15.25
-20.14
-24.70
-28.67
-32.00
-34.98
-38.08
-41.80
-46.53
-52.35
-58.99
-65.76
-71.63
-75.36
-75.81
-72.26
-64.60
-53.46
-39.98
-25.52
-11.33
1.69
13.08
22.63
30.32
36.14
40.08
42.16
42.45
41.19
38.82
35.87
32.87
30.26
28.29
27.02
26.35
26.22
26.49
26.98
27.46
27.59
27.04
25.61
23.30
20.39
17.29
14.35
11.73
9.32
6.78
3.81
0.24
-3.85
-8.20
-12.52
-16.63
-20.51
-24.24
-27.97
-31.83
-35.99
-40.64
-45.86
-51.49
-56.95
-61.22
-63.12
-61.63
-56.30
-47.32
-35.55
-22.20
-8.49
4.53
16.11
25.83
33.48
38.99
42.32
43.48
42.59
39.95
36.10
31.77
27.69
24.43
22.24
21.07
20.61
20.54
20.57
20.48
20.19
19.63
18.78
17.62
16.08
14.09
11.54
8.38
4.65
0.48
-3.94
-8.42
-12.79
-16.97
-20.95
-24.89
-29.10
-33.91
-39.51
-45.77
-52.05
-57.33
-60.41
-60.29
-56.45
-48.96
-38.44
-25.85
-12.26
1.23
13.76
24.64
33.49
40.14
44.61
47.05
47.68
46.81
44.83
42.17
39.24
36.36
33.73
31.42
29.48
27.96
26.91
26.32
26.07
25.88
25.40
24.33
22.52
20.02
17.01
13.75
10.41
7.02
3.49
-0.44
-4.92
-9.99
-15.39
-20.72
-25.57
-29.78
-33.48
-37.08
-41.15
-46.14
-52.14
-58.76
-65.14
-70.13
-72.52
-71.42
-66.33
-57.45
-45.45
-31.44
-16.67
-2.32
10.68
21.76
30.63
37.28
41.84
44.54
45.58
45.20
43.70
41.41
38.73
35.98
33.40
31.11
29.16
27.59
26.45
25.84
25.72
25.93
26.16
26.04
25.20
23.42
20.64
16.97
12.68
8.08
3.42
-1.19
-5.74
-10.35
-15.10
-19.96
-24.76
-29.30
-33.39
-36.98
-40.23
-43.47
-47.17
-51.70
-57.10
-62.97
-68.38
-72.07
-72.78
-69.70
-62.67
-52.22
-39.35
-25.29
-11.17
2.07
13.74
23.41
30.83
36.02
39.13
40.46
40.35
39.15
37.21
34.89
32.53
30.44
28.81
27.72
27.15
26.98
27.00
27.00
26.75
26.04
24.72
22.75
20.15
17.04
13.55
9.83
5.98
2.04
-1.99
-6.06
-10.08
-13.92
-17.45
-20.72
-23.95
-27.57
-32.00
-37.48
-43.87
-50.61
-56.84
-61.48
-63.51
-62.16
-57.04
-48.31
-36.62
-23.06
-8.89
4.73
16.91
27.15
35.24
41.16
44.89
46.43
45.91
43.66
40.24
36.34
32.61
29.46
27.03
25.19
23.74
22.51
21.44
20.56
19.88
19.29
18.58
17.50
15.81
13.36
10.12
6.17
1.70
-3.05
-7.85
-12.52
-16.99
-21.30
-25.54
-29.87
-34.53
-39.71
-45.53
-51.92
-58.45
-64.26
-68.18
-68.99
-65.80
-58.37
-47.24
-33.55
-18.72
-4.09
9.38
21.09
30.79
38.41
43.96
47.56
49.39
49.66
48.65
46.62
43.87
40.76
37.67
34.95
32.81
31.27
30.19
29.32
28.46
27.45
26.18
24.53
22.36
19.49
15.83
11.41
6.38
0.98
-4.56
-10.06
-15.35
-20.34
-24.94
-29.17
-33.12
-36.95
-40.95
-45.41
-50.50
-56.19
-62.04
-67.24
-70.61
-70.86
-67.03
-58.83
-46.80
-32.18
-16.52
-1.29
12.49
24.28
33.89
41.32
46.60
49.84
51.16
50.86
49.28
46.79
43.74
40.36
36.88
33.55
30.66
28.45
27.11
26.63
26.80
27.24
27.41
26.88
25.39
22.97
19.83
16.27
12.51
8.58
4.45
0.03
-4.66
-9.47
-14.15
-18.51
-22.54
-26.34
-30.18
-34.33
-39.07
-44.60
-51.02
-58.14
-65.34
-71.63
-75.68
-76.25
-72.46
-64.15
-51.89
-36.87
-20.54
-4.30
10.71
23.78
34.53
42.88
48.86
52.60
54.29
54.20
52.72
50.30
47.43
44.43
41.52
38.79
36.26
33.99
32.10
30.68
29.67
28.91
28.05
26.76
24.83
22.21
19.03
15.50
11.84
8.20
4.60
0.94
-2.92
-7.08
-11.54
-16.19
-20.82
-25.23
-29.27
-32.95
-36.40
-39.95
-43.97
-48.79
-54.45
-60.48
-65.94
-69.56
-70.06
-66.63
-59.15
-48.20
-34.92
-20.59
-6.41
6.71
18.08
27.27
34.04
38.37
40.44
40.65
39.47
37.38
34.76
31.90
29.01
26.31
24.03
22.40
21.56
21.46
21.87
22.39
22.66
22.44
21.66
20.39
18.73
16.64
14.01
10.65
6.46
1.56
-3.72
-8.93
-13.65
-17.66
-21.01
-23.95
-26.87
-30.15
-34.14
-38.98
-44.63
-50.69
-56.28
-60.23
-61.27
-58.39
-51.30
-40.49
-27.16
-12.86
1.01
13.46
23.98
32.46
38.93
43.42
45.96
46.68
45.80
43.70
40.83
37.69
34.72
32.25
30.44
29.23
28.40
27.66
26.79
25.71
24.45
23.03
21.39
19.34
16.69
13.34
9.38
5.01
0.43
-4.17
-8.73
-13.13
-17.29
-21.08
-24.51
-27.77
-31.22
-35.35
-40.53
-46.78
-53.68
-60.27
-65.27
-67.37
-65.55
-59.44
-49.40
-36.39
-21.72
-6.72
7.51
20.16
30.76
39.04
44.92
48.46
49.90
49.61
48.06
45.80
43.28
40.84
38.62
36.67
34.97
33.52
32.40
31.62
31.15
30.80
30.24
29.12
27.19
24.37
20.78
16.68
12.43
8.35
4.57
1.06
-2.39
-6.05
-10.09
-14.50
-19.07
-23.50
-27.57
-31.32
-35.02
-39.12
-44.01
-49.87
-56.44
-63.07
-68.71
-72.17
-72.38
-68.63
-60.80
-49.39
-35.45
-20.30
-5.25
8.68
20.87
31.00
38.94
44.60
47.91
48.90
47.80
45.11
41.50
37.68
34.17
31.22
28.86
27.02
25.66
24.78
24.43
24.55
24.94
25.21
24.94
23.80
21.68
18.76
15.33
11.73
8.13
4.44
0.48
-3.87
-8.53
-13.27
-17.80
-21.97
-25.82
-29.58
-33.60
-38.24
-43.76
-50.17
-57.11
-63.79
-69.02
-71.49
-70.15
-64.52
-54.87
-42.19
-27.77
-12.98
1.14
13.82
24.59
33.18
39.45
43.42
45.23
45.21
43.74
41.27
38.21
34.88
31.59
28.54
25.85
23.64
21.93
20.69
19.86
19.27
18.76
18.13
17.23
15.90
14.04
11.57
8.45
4.72
0.53
-3.89
-8.26
-12.35
-16.06
-19.47
-22.74
-26.07
-29.66
-33.73
-38.39
-43.62
-49.15
-54.30
-58.10
-59.53
-57.75
-52.43
-43.92
-33.00
-20.71
-8.10
4.06
15.11
24.57
31.98
36.97
39.37
39.32
37.35
34.14
30.49
27.02
24.05
21.68
19.84
18.44
17.35
16.57
16.01
15.65
15.39
15.05
14.42
13.22
11.22
8.33
4.65
0.50
-3.74
-7.74
-11.38
-14.72
-17.96
-21.35
-25.13
-29.49
-34.60
-40.45
-46.79
-53.00
-58.08
-60.81
-60.18
-55.65
-47.37
-36.05
-22.80
-8.75
5.05
17.80
28.84
37.68
44.05
47.88
49.35
48.88
46.98
44.15
40.80
37.23
33.66
30.29
27.25
24.62
22.44
20.68
19.30
18.24
17.41
16.65
15.74
14.34
12.15
8.99
4.87
0.04
-5.17
-10.43
-15.50
-20.31
-24.87
-29.34
-33.94
-38.98
-44.68
-51.03
-57.60
-63.50
-67.47
-68.28
-65.06
-57.56
-46.33
-32.43
-17.20
-1.98
12.14
24.39
34.34
41.82
46.84
49.53
50.18
49.26
47.32
44.95
42.58
40.42
38.48
36.70
35.04
33.47
32.00
30.58
29.11
27.45
25.55
23.43
21.22
18.93
16.46
13.56
9.91
5.38
-0.00
-5.94
-12.02
-17.83
-23.05
-27.60
-31.57
-35.27
-39.12
-43.55
-48.87
-55.09
-61.69
-67.68
-71.72
-72.48
-69.09
-61.31
-49.69
-35.33
-19.59
-3.80
10.95
23.85
34.40
42.34
47.69
50.64
51.58
50.95
49.13
46.47
43.21
39.64
36.03
32.66
29.82
27.71
26.45
25.99
26.19
26.74
27.24
27.26
26.45
24.61
21.81
18.32
14.49
10.65
6.96
3.37
-0.31
-4.29
-8.71
-13.52
-18.57
-23.60
-28.35
-32.62
-36.41
-39.86
-43.33
-47.28
-52.07
-57.83
-64.11
-69.93
-73.92
-74.69
-71.31
-63.63
-52.25
-38.37
-23.38
-8.47
5.47
17.90
28.46
36.88
42.93
46.52
47.76
47.00
44.80
41.77
38.49
35.31
32.45
29.98
27.92
26.33
25.26
24.73
24.64
24.80
24.91
24.69
23.94
22.53
20.49
17.88
14.71
10.96
6.59
1.60
-3.86
-9.52
-15.03
-20.09
-24.60
-28.72
-32.83
-37.33
-42.52
-48.28
-54.13
-59.18
-62.32
-62.48
-58.98
-51.67
-41.01
-27.91
-13.57
0.80
14.15
25.68
34.84
41.35
45.13
46.32
45.32
42.69
39.08
35.12
31.35
28.12
25.62
23.86
22.78
22.14
21.74
21.36
20.85
20.13
19.18
17.97
16.38
14.31
11.61
8.28
4.40
0.20
-4.07
-8.19
-11.99
-15.43
-18.60
-21.73
-25.19
-29.42
-34.78
-41.38
-48.91
-56.49
-62.84
-66.52
-66.31
-61.59
-52.52
-40.01
-25.38
-10.10
4.63
17.91
29.25
38.35
45.11
49.57
51.90
52.39
51.39
49.28
46.41
43.14
39.83
36.79
34.25
32.27
30.73
29.41
28.13
26.82
25.51
24.21
22.76
20.87
18.17
14.48
9.87
4.68
-0.62
-5.67
-10.33
-14.71
-18.98
-23.31
-27.79
-32.44
-37.42
-42.94
-49.22
-56.16
-63.17
-69.12
-72.57
-72.26
-67.50
-58.45
-46.02
-31.56
-16.44
-1.78
11.68
23.48
33.35
41.14
46.81
50.45
52.31
52.66
51.77
49.86
47.17
43.95
40.58
37.41
34.79
32.88
31.61
30.74
29.94
28.89
27.42
25.46
23.05
20.23
17.00
13.34
9.19
4.57
-0.43
-5.63
-10.82
-15.80
-20.44
-24.65
-28.48
-32.00
-35.51
-39.39
-44.04
-49.67
-56.11
-62.66
-68.14
-71.19
-70.61
-65.78
-56.81
-44.51
-30.16
-15.12
-0.54
12.76
24.30
33.77
41.00
45.89
48.45
48.91
47.64
45.19
42.11
38.84
35.64
32.71
30.16
28.08
26.56
25.62
25.18
25.07
25.03
24.72
23.84
22.24
19.90
16.99
13.76
10.41
6.99
3.47
-0.31
-4.41
-8.81
-13.32
-17.71
-21.77
-25.45
-28.81
-32.10
-35.65
-39.83
-44.99
-51.14
-57.91
-64.47
-69.64
-72.18
-71.06
-65.83
-56.68
-44.41
-30.23
-15.48
-1.33
11.37
22.13
30.72
37.06
41.13
42.94
42.68
40.73
37.64
34.10
30.67
27.77
25.52
23.87
22.68
21.81
21.14
20.56
20.00
19.32
18.40
17.06
15.14
12.48
9.08
5.03
0.55
-4.04
-8.49
-12.58
-16.26
-19.58
-22.71
-25.97
-29.71
-34.26
-39.71
-45.77
-51.75
-56.61
-59.19
-58.58
-54.33
-46.61
-36.07
-23.71
-10.60
2.25
14.07
24.20
32.14
37.55
40.32
40.61
38.92
35.93
32.39
28.94
26.00
23.80
22.39
21.70
21.61
21.85
22.11
22.04
21.36
19.92
17.75
14.97
11.75
8.25
4.56
0.70
-3.32
-7.46
-11.65
-15.76
-19.70
-23.45
-27.17
-31.15
-35.72
-41.07
-47.08
-53.21
-58.56
-62.07
-62.79
-60.11
-53.86
-44.37
-32.36
-18.80
-4.75
8.80
21.06
31.45
39.64
45.47
48.97
50.24
49.55
47.31
44.06
40.43
36.96
34.11
32.11
30.91
30.29
29.85
29.18
28.01
26.25
24.00
21.41
18.61
15.64
12.41
8.81
4.79
0.46
-4.04
-8.52
-12.87
-17.02
-21.02
-24.99
-29.15
-33.79
-39.16
-45.35
-52.16
-58.95
-64.72
-68.25
-68.43
-64.56
-56.55
-44.96
-30.95
-15.84
-0.98
12.68
24.56
34.45
42.24
47.88
51.23
52.24
51.03
48.04
43.96
39.54
35.41
31.93
29.14
26.84
24.82
22.99
21.37
20.04
18.99
18.07
16.97
15.42
13.21
10.33
6.89
3.05
-1.10
-5.53
-10.24
-15.13
-20.02
-24.73
-29.12
-33.29
-37.50
-42.11
-47.39
-53.25
-59.15
-64.10
-66.85
-66.24
-61.52
-52.65
-40.29
-25.65
-10.13
4.93
18.55
30.14
39.42
46.30
50.79
52.96
52.96
51.11
47.91
43.94
39.80
35.98
32.79
30.28
28.39
26.93
25.74
24.66
23.55
22.31
20.80
18.91
16.58
13.77
10.47
6.67
2.35
-2.45
-7.62
-12.93
-18.14
-23.05
-27.58
-31.84
-36.07
-40.57
-45.66
-51.49
-57.91
-64.39
-69.98
-73.43
-73.59
-69.62
-61.38
-49.38
-34.70
-18.70
-2.74
12.01
24.71
34.82
42.13
46.71
48.87
49.08
47.84
45.67
42.95
40.01
37.05
34.19
31.51
29.13
27.10
25.47
24.19
23.12
22.07
20.91
19.56
17.96
16.05
13.70
10.75
7.08
2.71
-2.15
-7.16
-11.99
-16.45
-20.48
-24.18
-27.68
-31.19
-34.96
-39.33
-44.62
-50.90
-57.84
-64.58
-69.90
-72.46
-71.20
-65.68
-56.11
-43.39
-28.75
-13.54
1.01
13.99
24.80
33.13
38.92
42.27
43.44
42.83
40.95
38.37
35.62
33.08
30.95
29.27
27.93
26.82
25.88
25.07
24.31
23.49
22.38
20.77
18.50
15.55
11.99
7.99
3.66
-0.93
-5.74
-10.72
-15.71
-20.49
-24.88
-28.87
-32.64
-36.52
-40.87
-45.81
-51.07
-55.93
-59.31
-60.08
-57.31
-50.65
-40.43
-27.53
-13.18
1.31
14.87
26.72
36.35
43.50
48.04
49.97
49.49
47.07
43.33
39.04
34.91
31.44
28.85
27.01
25.58
24.18
22.56
20.66
18.68
16.87
15.39
14.20
13.05
11.56
9.39
6.40
2.65
-1.62
-6.09
-10.57
-14.91
-19.13
-23.35
-27.75
-32.56
-38.04
-44.31
-51.17
-58.01
-63.70
-66.84
-66.17
-60.99
-51.45
-38.49
-23.59
-8.27
6.24
19.19
30.25
39.29
46.28
51.18
53.99
54.81
53.91
51.74
48.84
45.75
42.95
40.73
39.15
38.08
37.23
36.28
34.98
33.19
30.90
28.23
25.29
22.18
18.91
15.42
11.60
7.35
2.58
-2.66
-8.26
-14.01
-19.65
-24.97
-29.90
-34.57
-39.28
-44.46
-50.38
-57.06
-64.03
-70.35
-74.77
-75.96
-73.02
-65.58
-54.07
-39.54
-23.40
-7.13
8.08
21.45
32.58
41.42
48.00
52.40
54.72
55.07
53.74
51.14
47.76
44.10
40.56
37.35
34.59
32.41
30.91
30.14
30.03
30.27
30.37
29.82
28.24
25.58
22.07
18.15
14.21
10.47
6.89
3.29
-0.58
-4.83
-9.47
-14.36
-19.37
-24.37
-29.33
-34.21
-39.02
-43.82
-48.77
-54.09
-59.96
-66.22
-72.17
-76.61
-78.13
-75.54
-68.35
-56.98
-42.55
-26.59
-10.57
4.46
17.79
29.05
37.98
44.38
48.16
49.44
48.61
46.26
43.07
39.63
36.32
33.29
30.55
28.14
26.13
24.65
23.75
23.29
22.98
22.48
21.47
19.86
17.71
15.13
12.25
9.08
5.58
1.73
-2.44
-6.87
-11.40
-15.88
-20.19
-24.24
-28.00
-31.61
-35.41
-39.79
-45.08
-51.26
-57.83
-63.79
-67.89
-68.87
-65.93
-58.87
-48.16
-34.83
-20.26
-5.79
7.42
18.67
27.65
34.33
38.92
41.62
42.63
42.12
40.39
37.79
34.82
31.91
29.39
27.39
25.85
24.55
23.33
22.13
20.97
19.96
19.10
18.26
17.15
15.48
13.04
9.82
6.01
1.85
-2.40
-6.61
-10.72
-14.73
-18.71
-22.71
-26.79
-31.09
-35.79
-41.10
-47.00
-53.19
-58.93
-63.15
-64.69
-62.66
-56.74
-47.27
-35.18
-21.65
-7.89
5.14
16.69
26.27
33.57
38.43
40.91
41.23
39.81
37.16
33.88
30.50
27.42
24.86
22.80
21.13
19.72
18.47
17.32
16.23
15.10
13.80
12.22
10.26
7.90
5.11
1.84
-1.91
-6.02
-10.29
-14.48
-18.35
-21.86
-25.11
-28.31
-31.66
-35.33
-39.44
-44.08
-49.22
-54.56
-59.40
-62.63
-63.02
-59.64
-52.21
-41.23
-27.86
-13.53
0.47
13.22
24.25
33.36
40.42
45.35
48.07
48.63
47.29
44.55
41.04
37.42
34.20
31.73
30.08
29.14
28.65
28.28
27.77
26.99
25.94
24.71
23.33
21.68
19.46
16.31
12.08
6.94
1.40
-3.92
-8.61
-12.60
-16.23
-19.97
-24.16
-28.97
-34.38
-40.33
-46.70
-53.23
-59.24
-63.66
-65.23
-62.90
-56.27
-45.78
-32.50
-17.81
-2.97
11.02
23.49
34.01
42.30
48.24
51.84
53.33
53.03
51.31
48.55
45.15
41.50
38.02
35.10
33.02
31.83
31.36
31.27
31.18
30.78
29.88
28.44
26.48
24.03
21.15
17.82
14.06
9.89
5.31
0.38
-4.86
-10.27
-15.72
-21.04
-26.15
-31.02
-35.80
-40.75
-46.12
-52.07
-58.50
-64.90
-70.35
-73.60
-73.46
-69.09
-60.29
-47.67
-32.43
-16.10
-0.13
14.38
26.68
36.42
43.47
47.88
49.89
49.89
48.41
46.04
43.30
40.55
38.01
35.77
33.85
32.31
31.24
30.68
30.62
30.87
31.05
30.68
29.35
26.85
23.35
19.26
15.06
11.06
7.26
3.46
-0.59
-5.02
-9.77
-14.64
-19.43
-24.04
-28.44
-32.70
-36.89
-41.16
-45.75
-50.93
-56.81
-63.12
-69.07
-73.45
-74.95
-72.52
-65.72
-54.81
-40.66
-24.52
-7.75
8.33
22.63
34.37
43.11
48.75
51.57
52.03
50.71
48.15
44.80
41.01
37.10
33.34
29.97
27.18
25.01
23.41
22.23
21.40
20.83
20.43
20.01
19.31
18.05
16.04
13.27
9.89
6.15
2.25
-1.78
-5.98
-10.38
-14.95
-19.54
-23.99
-28.22
-32.28
-36.40
-40.90
-46.10
-52.16
-58.85
-65.41
-70.62
-73.08
-71.63
-65.75
-55.76
-42.69
-27.97
-13.02
1.06
13.54
24.06
32.45
38.68
42.84
45.08
45.64
44.84
43.02
40.56
37.85
35.17
32.73
30.64
28.86
27.29
25.86
24.48
23.13
21.77
20.32
18.63
16.51
13.75
10.19
5.84
0.91
-4.28
-9.32
-13.90
-17.89
-21.38
-24.67
-28.07
-31.96
-36.58
-42.03
-48.14
-54.43
-60.12
-64.19
-65.60
-63.54
-57.64
-48.16
-35.92
-22.09
-7.96
5.41
17.28
27.23
35.12
40.94
44.72
46.53
46.53
45.04
42.51
39.47
36.40
33.68
31.50
29.87
28.66
27.65
26.59
25.31
23.78
21.96
19.87
17.46
14.64
11.34
7.55
3.39
-0.93
-5.20
-9.36
-13.42
-17.48
-21.66
-26.02
-30.65
-35.71
-41.37
-47.66
-54.36
-60.87
-66.17
-69.04
-68.36
-63.44
-54.27
-41.48
-26.31
-10.31
5.06
18.66
29.81
38.27
44.09
47.45
48.56
47.71
45.22
41.59
37.33
33.05
29.20
26.13
23.94
22.53
21.64
20.95
20.25
19.41
18.45
17.38
16.20
14.74
12.80
10.19
6.87
3.01
-1.14
-5.30
-9.32
-13.17
-16.97
-20.84
-24.96
-29.48
-34.53
-40.19
-46.43
-52.97
-59.20
-64.23
-66.98
-66.45
-62.04
-53.74
-42.21
-28.60
-14.20
-0.22
12.49
23.39
32.15
38.49
42.23
43.37
42.22
39.44
35.80
32.08
28.73
25.96
23.72
21.86
20.30
19.02
18.02
17.24
16.59
15.84
14.82
13.31
11.13
8.18
4.46
0.13
-4.51
-9.09
-13.29
-16.96
-20.25
-23.55
-27.34
-32.08
-37.87
-44.34
-50.63
-55.57
-57.94
-56.78
-51.74
-43.06
-31.51
-18.22
-4.36
9.00
20.99
30.98
38.50
43.31
45.37
44.90
42.42
38.65
34.38
30.32
26.91
24.32
22.46
21.16
20.24
19.56
19.05
18.61
18.05
17.15
15.62
13.26
9.90
5.57
0.44
-5.13
-10.75
-16.11
-21.08
-25.81
-30.64
-35.96
-42.08
-49.00
-56.25
-62.98
-67.99
-70.08
-68.31
-62.28
-52.23
-39.06
-24.08
-8.66
5.97
18.91
29.65
37.94
43.73
47.06
48.04
46.99
44.39
40.91
37.16
33.60
30.36
27.41
24.68
22.23
20.23
18.85
18.03
17.43
16.54
14.83
12.01
8.14
3.50
-1.47
-6.41
-11.10
-15.59
-20.09
-25.03
-30.81
-37.70
-45.59
-53.86
-61.42
-66.94
-69.16
-67.23
-60.98
-50.87
-37.90
-23.29
-8.25
6.25
19.44
30.78
39.90
46.55
50.61
52.18
51.56
49.24
45.77
41.71
37.55
33.64
30.20
27.37
25.16
23.56
22.46
21.67
20.93
19.94
18.40
16.08
12.82
8.63
3.69
-1.71
-7.21
-12.53
-17.53
-22.31
-27.17
-32.50
-38.67
-45.77
-53.55
-61.26
-67.78
-71.88
-72.46
-68.86
-61.02
-49.53
-35.40
-19.91
-4.27
10.55
23.85
35.18
44.25
50.82
54.71
55.93
54.75
51.82
48.01
44.15
40.81
38.14
35.96
34.00
32.04
30.06
28.20
26.56
25.11
23.68
21.98
19.74
16.83
13.24
9.10
4.56
-0.19
-5.04
-9.95
-14.92
-20.00
-25.23
-30.72
-36.66
-43.19
-50.28
-57.56
-64.18
-68.93
-70.53
-67.99
-61.02
-50.12
-36.41
-21.32
-6.12
8.20
21.04
32.02
40.86
47.27
51.04
52.21
51.12
48.39
44.79
40.98
37.40
34.27
31.64
29.51
27.90
26.76
25.97
25.35
24.64
23.56
21.94
19.61
16.48
12.52
7.79
2.53
-2.91
-8.16
-12.98
-17.36
-21.48
-25.63
-30.13
-35.24
-41.13
-47.77
-54.87
-61.69
-67.11
-69.81
-68.63
-62.98
-53.05
-39.83
-24.71
-9.17
5.64
19.02
30.59
40.18
47.67
52.94
55.99
56.96
56.19
54.20
51.58
48.80
46.24
44.05
42.24
40.79
39.64
38.73
37.97
37.17
36.12
34.56
32.32
29.35
25.70
21.49
16.86
11.93
6.78
1.44
-4.10
-9.77
-15.48
-21.05
-26.28
-31.06
-35.42
-39.63
-44.14
-49.38
-55.57
-62.52
-69.50
-75.33
-78.70
-78.42
-73.77
-64.70
-51.78
-36.12
-19.10
-2.06
13.88
27.92
39.59
48.71
55.21
59.16
60.77
60.34
58.34
55.30
51.80
48.30
45.06
42.14
39.53
37.19
35.19
33.66
32.66
32.11
31.73
31.12
29.85
27.72
24.70
20.99
16.87
12.54
8.10
3.53
-1.18
-5.95
-10.67
-15.18
-19.39
-23.31
-27.04
-30.78
-34.75
-39.21
-44.35
-50.35
-57.10
-64.14
-70.57
-75.19
-76.73
-74.26
-67.50
-56.86
-43.36
-28.27
-12.80
2.05
15.61
27.36
36.96
44.09
48.66
50.76
50.78
49.28
46.88
44.09
41.25
38.54
36.01
33.72
31.73
30.16
29.15
28.67
28.63
28.75
28.70
28.09
26.70
24.41
21.33
17.70
13.83
9.98
6.28
2.71
-0.94
-4.87
-9.22
-13.99
-19.01
-24.01
-28.75
-33.13
-37.21
-41.24
-45.54
-50.38
-55.92
-62.00
-68.11
-73.29
-76.33
-76.05
-71.69
-63.15
-51.09
-36.73
-21.44
-6.45
7.33
19.32
29.14
36.52
41.28
43.42
43.19
41.10
37.82
34.09
30.57
27.71
25.70
24.49
23.87
23.56
23.37
23.13
22.77
22.21
21.35
20.08
18.31
16.04
13.35
10.34
7.10
3.66
0.05
-3.72
-7.62
-11.58
-15.54
-19.44
-23.27
-27.03
-30.82
-34.82
-39.25
-44.21
-49.49
-54.46
-58.10
-59.23
-56.89
-50.69
-40.95
-28.57
-14.80
-0.88
12.22
23.77
33.34
40.62
45.36
47.51
47.21
44.94
41.43
37.51
33.87
30.87
28.61
26.92
25.59
24.47
23.47
22.53
21.51
20.23
18.52
16.25
13.47
10.36
7.07
3.72
0.35
-3.11
-6.71
-10.43
-14.16
-17.77
-21.17
-24.39
-27.61
-31.17
-35.47
-40.82
-47.24
-54.36
-61.30
-66.82
-69.57
-68.44
-62.88
-53.19
-40.40
-26.04
-11.72
1.32
12.39
21.37
28.47
33.98
38.02
40.61
41.72
41.38
39.87
37.61
35.01
32.45
30.17
28.25
26.69
25.45
24.40
23.37
22.18
20.63
18.67
16.30
13.62
10.66
7.44
3.86
-0.11
-4.47
-9.09
-13.80
-18.43
-22.93
-27.34
-31.87
-36.72
-42.08
-48.00
-54.32
-60.60
-66.11
-69.86
-70.86
-68.28
-61.81
-51.73
-38.83
-24.25
-9.20
5.28
18.38
29.55
38.46
44.90
48.84
50.51
50.30
48.75
46.41
43.70
40.86
37.96
35.03
32.08
29.27
26.77
24.74
23.27
22.30
21.62
20.93
19.90
18.23
15.76
12.43
8.43
4.03
-0.46
-4.79
-8.91
-12.98
-17.30
-22.23
-28.04
-34.76
-42.11
-49.41
-55.64
-59.63
-60.29
-56.97
-49.64
-39.01
-26.20
-12.54
0.85
13.17
23.93
32.76
39.38
43.58
45.31
44.87
42.82
39.86
36.63
33.42
30.34
27.31
24.34
21.57
19.25
17.60
16.66
16.26
15.97
15.36
13.99
11.61
8.17
3.84
-1.07
-6.19
-11.21
-16.02
-20.65
-25.38
-30.52
-36.40
-43.10
-50.34
-57.36
-62.97
-65.85
-64.84
-59.41
-49.87
-37.26
-23.07
-8.74
4.67
16.53
26.54
34.55
40.41
44.01
45.37
44.74
42.58
39.48
36.03
32.63
29.52
26.75
24.27
22.04
20.05
18.33
16.94
15.86
14.91
13.81
12.14
9.52
5.80
1.06
-4.36
-9.98
-15.33
-20.10
-24.22
-27.91
-31.63
-35.94
-41.26
-47.67
-54.72
-61.38
-66.38
-68.51
-66.99
-61.67
-52.90
-41.37
-27.98
-13.61
0.81
14.35
26.20
35.70
42.50
46.56
48.11
47.56
45.40
42.18
38.38
34.44
30.64
27.16
24.07
21.40
19.14
17.32
15.86
14.60
13.33
11.78
9.76
7.14
3.88
0.04
-4.19
-8.55
-12.78
-16.63
-20.05
-23.26
-26.63
-30.60
-35.51
-41.40
-47.96
-54.41
-59.74
-62.78
-62.52
-58.38
-50.38
-39.10
-25.64
-11.31
2.66
15.28
25.87
34.07
39.72
42.87
43.69
42.55
39.95
36.47
32.70
29.09
25.85
23.05
20.61
18.41
16.41
14.64
13.15
11.92
10.84
9.65
8.05
5.76
2.64
-1.21
-5.48
-9.80
-13.84
-17.52
-20.95
-24.48
-28.49
-33.31
-39.02
-45.39
-51.77
-57.18
-60.47
-60.65
-57.14
-49.95
-39.68
-27.34
-14.06
-0.83
11.57
22.58
31.75
38.69
43.14
45.02
44.51
42.13
38.56
34.57
30.80
27.62
25.09
23.04
21.25
19.54
17.99
16.69
15.70
14.84
13.66
11.62
8.39
3.99
-1.20
-6.52
-11.45
-15.69
-19.32
-22.68
-26.21
-30.30
-35.24
-41.04
-47.43
-53.75
-58.98
-61.90
-61.40
-56.79
-48.06
-35.90
-21.55
-6.44
8.11
21.15
32.13
40.80
47.11
51.06
52.77
52.49
50.63
47.77
44.53
41.44
38.73
36.39
34.20
31.89
29.41
26.88
24.51
22.54
20.95
19.52
17.83
15.44
12.08
7.75
2.69
-2.75
-8.19
-13.44
-18.46
-23.37
-28.33
-33.57
-39.22
-45.32
-51.77
-58.20
-63.89
-67.84
-68.97
-66.39
-59.74
-49.33
-36.06
-21.21
-6.10
8.15
20.78
31.37
39.69
45.71
49.46
51.13
51.04
49.64
47.38
44.72
42.01
39.49
37.30
35.50
34.10
33.02
32.13
31.21
30.05
28.47
26.40
23.87
20.95
17.74
14.31
10.70
6.91
2.91
-1.34
-5.87
-10.64
-15.59
-20.56
-25.39
-29.95
-34.25
-38.44
-42.80
-47.64
-53.13
-59.01
-64.54
-68.49
-69.45
-66.37
-58.87
-47.47
-33.48
-18.52
-4.06
8.90
19.95
29.00
36.12
41.28
44.40
45.50
44.78
42.79
40.18
37.55
35.29
33.46
31.93
30.54
29.23
28.03
27.01
26.10
25.16
23.94
22.26
20.00
17.15
13.75
9.82
5.40
0.56
-4.57
-9.78
-14.86
-19.69
-24.23
-28.56
-32.91
-37.57
-42.84
-48.84
-55.34
-61.66
-66.68
-69.11
-67.87
-62.48
-53.15
-40.75
-26.54
-11.76
2.48
15.44
26.58
35.54
42.13
46.35
48.35
48.41
46.99
44.52
41.46
38.22
35.11
32.39
30.20
28.53
27.27
26.26
25.29
24.16
22.68
20.73
18.26
15.25
11.67
7.50
2.78
-2.35
-7.59
-12.61
-17.15
-21.16
-24.79
-28.39
-32.27
-36.65
-41.63
-47.16
-53.14
-59.28
-65.03
-69.43
-71.32
-69.61
-63.68
-53.69
-40.55
-25.64
-10.45
3.82
16.42
26.99
35.41
41.68
45.81
47.84
47.92
46.35
43.59
40.14
36.52
33.18
30.39
28.25
26.70
25.57
24.70
23.96
23.22
22.39
21.33
19.89
17.94
15.39
12.23
8.59
4.63
0.50
-3.65
-7.75
-11.71
-15.49
-19.05
-22.46
-25.91
-29.67
-34.06
-39.27
-45.20
-51.35
-56.77
-60.27
-60.69
-57.26
-49.84
-39.01
-25.89
-11.81
1.97
14.41
24.83
32.82
38.17
40.88
41.22
39.67
36.87
33.51
30.17
27.24
24.87
23.07
21.75
20.77
20.03
19.44
18.96
18.55
18.17
17.70
16.97
15.72
13.69
10.70
6.73
1.98
-3.16
-8.23
-12.86
-16.93
-20.57
-24.16
-28.11
-32.75
-38.24
-44.38
-50.67
-56.28
-60.16
-61.24
-58.67
-52.10
-41.88
-29.02
-14.86
-0.76
12.21
23.41
32.59
39.68
44.68
47.58
48.38
47.26
44.59
40.89
36.78
32.80
29.31
26.49
24.37
22.87
21.91
21.36
21.07
20.78
20.24
19.20
17.52
15.24
12.47
9.35
5.92
2.13
-2.08
-6.75
-11.75
-16.86
-21.81
-26.46
-30.90
-35.44
-40.48
-46.32
-52.94
-59.86
-66.14
-70.56
-71.96
-69.42
-62.62
-51.90
-38.18
-22.74
-6.99
7.82
20.78
31.38
39.50
45.22
48.70
50.17
49.88
48.15
45.43
42.21
38.97
36.08
33.75
32.01
30.68
29.54
28.33
26.91
25.23
23.29
21.14
18.77
16.10
12.99
9.34
5.12
0.43
-4.50
-9.39
-13.99
-18.14
-21.82
-25.14
-28.32
-31.68
-35.59
-40.41
-46.35
-53.31
-60.74
-67.61
-72.51
-74.05
-71.21
-63.75
-52.18
-37.74
-21.87
-5.94
9.01
22.33
33.59
42.47
48.71
52.20
53.06
51.71
48.82
45.13
41.27
37.68
34.59
32.10
30.25
29.10
28.70
28.99
29.80
30.80
31.54
31.55
30.48
28.16
24.73
20.57
16.19
11.99
8.11
4.41
0.54
-3.84
-8.85
-14.36
-20.03
-25.45
-30.35
-34.68
-38.58
-42.33
-46.29
-50.79
-56.06
-62.09
-68.44
-74.23
-78.24
-79.16
-76.09
-68.75
-57.57
-43.61
-28.20
-12.62
2.08
15.17
26.17
34.82
40.98
44.70
46.15
45.64
43.64
40.71
37.46
34.44
31.98
30.13
28.68
27.39
26.07
24.74
23.50
22.44
21.52
20.51
19.11
17.10
14.40
11.13
7.50
3.69
-0.23
-4.29
-8.60
-13.17
-18.01
-23.03
-28.22
-33.67
-39.55
-45.96
-52.64
-58.92
-63.72
-65.84
-64.36
-58.94
-49.95
-38.26
-24.99
-11.24
2.10
14.29
24.74
32.99
38.73
41.87
42.60
41.32
38.61
35.08
31.33
27.81
24.83
22.55
20.91
19.76
18.92
18.26
17.66
17.08
16.40
15.44
14.00
11.84
8.85
5.03
0.62
-4.07
-8.65
-12.84
-16.52
-19.79
-22.92
-26.36
-30.53
-35.76
-42.04
-48.91
-55.44
-60.35
-62.34
-60.45
-54.35
-44.40
-31.62
-17.32
-2.84
10.69
22.52
32.21
39.57
44.51
47.09
47.45
45.95
43.12
39.62
36.03
32.79
30.14
28.08
26.54
25.45
24.74
24.37
24.21
24.07
23.68
22.82
21.31
18.96
15.64
11.35
6.17
0.38
-5.57
-11.25
-16.37
-20.85
-24.93
-29.08
-33.86
-39.70
-46.72
-54.55
-62.33
-68.82
-72.57
-72.41
-67.71
-58.59
-45.89
-30.91
-15.02
0.56
15.00
27.75
38.46
46.87
52.75
56.00
56.75
55.35
52.40
48.61
44.62
40.92
37.78
35.29
33.43
32.08
31.11
30.32
29.48
28.37
26.76
24.51
21.58
17.97
13.77
9.09
4.06
-1.17
-6.41
-11.52
-16.37
-20.91
-25.20
-29.31
-33.42
-37.72
-42.46
-47.85
-53.90
-60.33
-66.43
-71.17
-73.33
-71.85
-66.12
-56.19
-42.78
-27.12
-10.65
5.31
19.74
32.01
41.79
48.98
53.56
55.61
55.40
53.32
49.98
46.03
42.07
38.49
35.55
33.27
31.63
30.52
29.82
29.35
28.87
28.12
26.83
24.86
22.19
18.89
15.04
10.73
6.00
0.91
-4.45
-9.88
-15.20
-20.20
-24.77
-28.90
-32.77
-36.71
-41.19
-46.62
-53.13
-60.45
-67.70
-73.55
-76.58
-75.62
-70.09
-60.19
-46.82
-31.31
-15.10
0.57
14.85
27.23
37.44
45.37
50.95
54.21
55.32
54.64
52.62
49.76
46.47
43.09
39.88
37.06
34.86
33.37
32.48
31.93
31.37
30.43
28.92
26.82
24.19
21.16
17.83
14.26
10.43
6.35
1.94
-2.80
-7.84
-13.08
-18.36
-23.54
-28.48
-33.19
-37.80
-42.56
-47.74
-53.48
-59.64
-65.59
-70.32
-72.56
-71.20
-65.65
-56.01
-43.07
-28.06
-12.34
2.90
16.73
28.51
37.85
44.54
48.53
49.95
49.08
46.37
42.39
37.76
33.14
29.03
25.81
23.57
22.16
21.29
20.62
19.98
19.32
18.68
18.05
17.24
15.94
13.83
10.78
6.93
2.62
-1.76
-5.94
-9.83
-13.56
-17.25
-21.12
-25.34
-30.14
-35.73
-42.16
-49.07
-55.64
-60.67
-62.88
-61.35
-55.72
-46.32
-33.97
-19.81
-5.00
9.40
22.53
33.73
42.54
48.71
52.22
53.28
52.28
49.78
46.36
42.62
39.06
35.96
33.47
31.59
30.20
29.17
28.27
27.30
26.05
24.38
22.22
19.63
16.69
13.44
9.87
5.91
1.55
-3.12
-7.89
-12.53
-16.85
-20.80
-24.51
-28.23
-32.28
-37.02
-42.69
-49.31
-56.56
-63.59
-69.22
-72.08
-71.02
-65.48
-55.70
-42.61
-27.60
-12.05
2.90
16.51
28.33
38.07
45.51
50.47
52.99
53.35
52.07
49.81
47.11
44.34
41.67
39.19
37.01
35.28
34.12
33.53
33.31
33.10
32.52
31.29
29.32
26.71
23.70
20.55
17.40
14.29
11.06
7.48
3.38
-1.32
-6.46
-11.78
-16.93
-21.70
-26.01
-30.02
-34.01
-38.30
-43.24
-49.03
-55.68
-62.81
-69.58
-74.77
-77.04
-75.25
-68.86
-58.12
-44.01
-27.98
-11.52
4.14
18.17
30.10
39.69
46.85
51.59
54.05
54.60
53.69
51.83
49.40
46.69
43.84
40.94
38.13
35.61
33.58
32.14
31.27
30.80
30.44
29.85
28.66
26.65
23.72
19.98
15.68
11.15
6.70
2.48
-1.46
-5.24
-8.99
-12.87
-16.93
-21.16
-25.49
-29.84
-34.13
-38.47
-43.10
-48.37
-54.52
-61.45
-68.53
-74.60
-78.26
-78.25
-73.84
-65.01
-52.48
-37.46
-21.39
-5.60
8.85
21.29
31.38
39.05
44.31
47.32
48.25
47.41
45.26
42.36
39.31
36.50
34.12
32.07
30.24
28.54
27.09
26.10
25.69
25.75
25.87
25.48
24.12
21.67
18.34
14.64
11.07
7.86
4.91
1.88
-1.54
-5.48
-9.76
-14.01
-17.87
-21.10
-23.74
-26.04
-28.38
-31.17
-34.77
-39.44
-45.21
-51.69
-58.05
-63.07
-65.35
-63.78
-57.88
-48.05
-35.39
-21.38
-7.41
5.51
16.84
26.32
33.84
39.34
42.77
44.20
43.89
42.21
39.59
36.45
33.19
30.12
27.50
25.42
23.90
22.79
21.91
21.08
20.17
19.15
17.97
16.57
14.83
12.62
9.86
6.58
2.86
-1.16
-5.38
-9.68
-14.01
-18.35
-22.64
-26.93
-31.29
-35.91
-40.95
-46.46
-52.15
-57.31
-60.90
-61.75
-59.03
-52.41
-42.30
-29.63
-15.61
-1.39
12.09
24.18
34.43
42.50
48.17
51.32
52.06
50.74
47.90
44.12
39.97
35.90
32.22
29.11
26.69
25.00
24.01
23.57
23.46
23.40
23.09
22.25
20.69
18.33
15.20
11.49
7.48
3.47
-0.27
-3.66
-6.83
-10.07
-13.71
-17.87
-22.42
-27.04
-31.38
-35.25
-38.80
-42.41
-46.58
-51.70
-57.82
-64.48
-70.71
-75.20
-76.61
-73.89
-66.68
-55.38
-41.08
-25.27
-9.39
5.35
18.18
28.67
36.68
42.28
45.70
47.30
47.46
46.51
44.62
41.90
38.46
34.54
30.54
26.93
24.10
22.25
21.29
20.87
20.60
20.11
19.16
17.68
15.72
13.36
10.64
7.57
4.14
0.31
-3.91
-8.52
-13.43
-18.48
-23.45
-28.07
-32.08
-35.41
-38.29
-41.16
-44.55
-48.76
-53.70
-58.70
-62.70
-64.43
-62.85
-57.40
-48.20
-35.99
-21.94
-7.35
6.58
18.99
29.35
37.45
43.27
46.96
48.66
48.59
47.01
44.23
40.60
36.50
32.32
28.39
24.98
22.23
20.21
18.87
18.09
17.68
17.39
17.01
16.32
15.20
13.53
11.26
8.36
4.85
0.89
-3.32
-7.59
-11.78
-15.88
-19.94
-24.03
-28.21
-32.57
-37.22
-42.41
-48.32
-54.89
-61.55
-67.19
-70.44
-70.04
-65.35
-56.61
-44.83
-31.42
-17.72
-4.71
7.08
17.41
26.09
32.93
37.74
40.39
41.02
39.99
37.80
35.01
32.07
29.34
27.00
25.17
23.88
23.04
22.53
22.18
21.82
21.24
20.30
18.80
16.61
13.69
10.07
5.90
1.38
-3.24
-7.82
-12.25
-16.52
-20.60
-24.45
-28.05
-31.49
-35.00
-38.87
-43.39
-48.57
-53.96
-58.64
-61.38
-60.96
-56.60
-48.24
-36.62
-23.00
-8.87
4.48
16.16
25.74
33.08
38.21
41.21
42.16
41.33
39.16
36.26
33.27
30.74
28.93
27.82
27.21
26.79
26.34
25.78
25.06
24.22
23.23
21.95
20.15
17.56
13.99
9.49
4.31
-1.09
-6.22
-10.76
-14.63
-18.02
-21.22
-24.54
-28.20
-32.38
-37.14
-42.40
-47.80
-52.62
-55.80
-56.20
-53.00
-45.95
-35.55
-22.81
-9.07
4.45
16.82
27.49
36.24
43.02
47.86
50.77
51.80
51.11
49.00
46.02
42.78
39.78
37.25
35.14
33.18
31.16
29.04
26.96
25.14
23.60
22.12
20.29
17.69
14.08
9.52
4.32
-1.18
-6.61
-11.81
-16.66
-21.16
-25.39
-29.54
-33.89
-38.82
-44.62
-51.29
-58.40
-65.11
-70.17
-72.39
-70.78
-64.90
-54.98
-41.84
-26.72
-11.01
4.07
17.63
29.15
38.41
45.35
49.99
52.37
52.61
51.04
48.16
44.60
40.90
37.42
34.20
31.14
28.12
25.18
22.51
20.37
18.90
17.98
17.32
16.51
15.20
13.17
10.36
6.82
2.67
-1.91
-6.73
-11.55
-16.18
-20.56
-24.83
-29.30
-34.34
-40.29
-47.23
-54.87
-62.45
-68.84
-72.70
-72.85
-68.57
-59.85
-47.42
-32.58
-16.81
-1.48
12.41
24.24
33.75
40.84
45.60
48.20
48.93
48.20
46.47
44.16
41.55
38.84
36.17
33.65
31.42
29.60
28.19
27.03
25.89
24.45
22.52
20.01
16.93
13.38
9.43
5.13
0.51
-4.38
-9.38
-14.29
-18.91
-23.08
-26.79
-30.24
-33.77
-37.83
-42.81
-48.82
-55.56
-62.26
-67.79
-70.86
-70.36
-65.69
-56.93
-44.84
-30.62
-15.64
-1.11
12.10
23.49
32.85
40.11
45.26
48.28
49.23
48.34
45.99
42.73
39.15
35.70
32.66
30.09
27.94
26.12
24.59
23.40
22.59
22.06
21.56
20.72
19.21
16.80
13.50
9.48
5.02
0.37
-4.34
-9.05
-13.77
-18.50
-23.25
-28.09
-33.17
-38.65
-44.56
-50.66
-56.29
-60.49
-62.23
-60.67
-55.50
-46.95
-35.78
-23.01
-9.65
3.45
15.60
26.20
34.69
40.60
43.67
44.01
42.17
38.90
35.07
31.28
27.85
24.80
22.00
19.39
17.01
14.98
13.43
12.36
11.60
10.86
9.77
7.99
5.28
1.64
-2.77
-7.62
-12.53
-17.18
-21.39
-25.17
-28.67
-32.21
-36.19
-40.88
-46.35
-52.21
-57.59
-61.33
-62.22
-59.37
-52.47
-41.95
-28.73
-14.10
0.69
14.50
26.47
36.05
42.96
47.22
49.00
48.68
46.80
43.94
40.65
37.46
34.65
32.36
30.47
28.77
27.08
25.31
23.57
21.98
20.61
19.34
17.86
15.78
12.81
8.90
4.21
-0.87
-6.00
-10.93
-15.63
-20.34
-25.37
-31.02
-37.37
-44.14
-50.63
-55.84
-58.63
-58.07
-53.67
-45.50
-34.20
-20.77
-6.40
7.76
20.74
31.84
40.54
46.61
50.01
50.90
49.61
46.61
42.47
37.82
33.20
29.03
25.54
22.73
20.51
18.73
17.28
16.07
14.96
13.69
11.89
9.21
5.55
1.08
-3.77
-8.47
-12.67
-16.32
-19.69
-23.20
-27.32
-32.37
-38.47
-45.40
-52.54
-58.88
-63.12
-63.98
-60.61
-52.91
-41.55
-27.77
-13.05
1.36
14.56
26.02
35.40
42.47
47.03
49.07
48.80
46.69
43.41
39.60
35.77
32.21
29.02
26.19
23.76
21.73
20.14
18.96
18.06
17.15
15.90
13.95
11.09
7.29
2.71
-2.36
-7.54
-12.53
-17.17
-21.48
-25.67
-30.06
-34.97
-40.62
-46.99
-53.71
-60.04
-64.95
-67.26
-66.03
-60.77
-51.68
-39.59
-25.75
-11.46
2.16
14.35
24.63
32.65
38.19
41.20
41.83
40.54
38.03
34.94
31.79
28.87
26.25
23.94
21.98
20.41
19.24
18.34
17.47
16.25
14.36
11.59
7.91
3.50
-1.33
-6.19
-10.74
-14.82
-18.44
-21.83
-25.28
-29.15
-33.67
-38.94
-44.85
-50.98
-56.61
-60.74
-62.27
-60.33
-54.47
-44.95
-32.61
-18.72
-4.60
8.59
20.04
29.28
36.07
40.31
42.05
41.50
39.06
35.39
31.14
26.99
23.38
20.46
18.19
16.38
14.85
13.49
12.31
11.26
10.28
9.17
7.67
5.60
2.86
-0.45
-4.09
-7.79
-11.36
-14.73
-18.01
-21.47
-25.39
-30.04
-35.47
-41.42
-47.24
-51.94
-54.33
-53.38
-48.49
-39.68
-27.68
-13.73
0.78
14.63
26.95
37.29
45.42
51.26
54.85
56.31
55.95
54.26
51.77
49.01
46.27
43.62
41.00
38.34
35.68
33.10
30.76
28.69
26.79
24.77
22.31
19.13
15.11
10.35
5.17
-0.02
-4.84
-9.07
-12.76
-16.21
-19.90
-24.37
-30.00
-36.81
-44.35
-51.65
-57.46
-60.36
-59.29
-53.78
-44.09
-31.21
-16.54
-1.53
12.61
25.10
35.50
43.59
49.30
52.59
53.57
52.53
49.93
46.38
42.44
38.58
35.05
32.01
29.48
27.46
25.86
24.53
23.29
21.98
20.51
18.84
16.95
14.81
12.30
9.32
5.80
1.80
-2.57
-7.08
-11.55
-15.91
-20.22
-24.68
-29.54
-35.07
-41.37
-48.30
-55.32
-61.56
-65.96
-67.44
-65.22
-59.02
-49.14
-36.39
-21.94
-7.06
7.13
19.81
30.40
38.64
44.40
47.67
48.61
47.51
44.85
41.23
37.18
33.15
29.44
26.21
23.53
21.39
19.77
18.56
17.65
16.91
16.22
15.46
14.46
12.99
10.78
7.65
3.64
-1.05
-6.07
-11.05
-15.79
-20.32
-24.86
-29.70
-35.07
-41.12
-47.72
-54.51
-60.81
-65.70
-68.17
-67.28
-62.48
-53.76
-41.78
-27.62
-12.63
1.91
14.97
25.89
34.31
40.14
43.50
44.65
43.96
41.85
38.80
35.28
31.81
28.79
26.42
24.76
23.59
22.65
21.67
20.55
19.34
18.13
16.93
15.57
13.72
11.08
7.48
3.00
-2.03
-7.20
-12.15
-16.63
-20.59
-24.14
-27.57
-31.26
-35.62
-40.96
-47.27
-54.08
-60.45
-65.13
-66.86
-64.75
-58.51
-48.50
-35.59
-20.91
-5.64
9.12
22.42
33.52
41.93
47.41
50.04
50.10
48.04
44.43
39.83
34.83
29.98
25.78
22.49
20.18
18.66
17.64
16.80
15.91
14.85
13.58
12.05
10.23
8.02
5.34
2.11
-1.66
-5.85
-10.19
-14.37
-18.17
-21.57
-24.78
-28.19
-32.19
-37.06
-42.75
-48.89
-54.74
-59.37
-61.72
-60.90
-56.40
-48.28
-37.14
-24.05
-10.26
3.06
14.90
24.61
31.78
36.32
38.35
38.19
36.29
33.13
29.25
25.15
21.33
18.17
15.86
14.33
13.35
12.58
11.80
10.98
10.17
9.46
8.82
8.07
6.95
5.29
3.00
0.17
-3.00
-6.33
-9.68
-13.06
-16.61
-20.58
-25.25
-30.82
-37.19
-43.91
-50.16
-54.88
-57.03
-55.83
-50.94
-42.57
-31.38
-18.41
-4.84
8.09
19.38
28.25
34.32
37.59
38.35
37.11
34.50
31.23
27.91
25.04
22.83
21.22
19.99
18.81
17.50
16.07
14.67
13.43
12.36
11.22
9.64
7.26
3.95
-0.20
-4.85
-9.60
-14.13
-18.34
-22.42
-26.66
-31.42
-36.94
-43.21
-49.83
-56.06
-60.79
-62.85
-61.24
-55.50
-45.81
-33.02
-18.37
-3.23
11.19
23.98
34.51
42.37
47.37
49.58
49.31
47.16
43.87
40.21
36.71
33.59
30.77
28.07
25.33
22.57
20.01
17.88
16.31
15.17
14.11
12.70
10.56
7.54
3.74
-0.61
-5.22
-9.90
-14.60
-19.38
-24.38
-29.78
-35.76
-42.43
-49.72
-57.20
-64.04
-69.06
-70.98
-68.81
-62.18
-51.45
-37.69
-22.29
-6.69
8.00
21.05
32.01
40.68
46.92
50.69
52.12
51.46
49.17
45.83
42.04
38.30
34.95
32.12
29.79
27.93
26.50
25.46
24.77
24.32
23.86
23.06
21.55
19.00
15.23
10.31
4.49
-1.78
-8.05
-13.95
-19.35
-24.30
-29.00
-33.77
-38.95
-44.82
-51.54
-58.93
-66.34
-72.66
-76.41
-76.23
-71.30
-61.63
-48.12
-32.20
-15.49
0.69
15.42
28.23
38.82
46.98
52.49
55.28
55.54
53.73
50.54
46.72
42.83
39.16
35.80
32.74
29.96
27.58
25.67
24.28
23.28
22.43
21.42
19.91
17.60
14.32
10.12
5.23
0.03
-5.09
-9.82
-14.12
-18.15
-22.23
-26.77
-32.09
-38.37
-45.47
-52.97
-60.05
-65.71
-68.87
-68.64
-64.56
-56.64
-45.50
-32.14
-17.74
-3.50
9.65
21.11
30.56
37.86
42.97
45.82
46.50
45.31
42.77
39.60
36.46
33.74
31.49
29.58
27.82
26.15
24.73
23.74
23.25
23.11
22.87
22.02
20.10
16.90
12.51
7.31
1.78
-3.63
-8.67
-13.36
-17.89
-22.59
-27.75
-33.61
-40.22
-47.43
-54.76
-61.39
-66.28
-68.31
-66.59
-60.74
-51.01
-38.21
-23.55
-8.32
6.32
19.47
30.51
39.02
44.77
47.72
48.10
46.39
43.27
39.55
35.88
32.75
30.34
28.61
27.32
26.20
25.02
23.64
22.07
20.39
18.69
16.95
15.03
12.65
9.58
5.70
1.14
-3.81
-8.80
-13.54
-17.90
-21.93
-25.78
-29.72
-34.08
-39.15
-45.03
-51.45
-57.66
-62.52
-64.76
-63.33
-57.72
-48.06
-35.22
-20.42
-5.09
9.56
22.58
33.45
41.97
48.15
52.17
54.19
54.39
53.00
50.33
46.86
43.16
39.75
37.01
35.02
33.61
32.51
31.44
30.26
28.93
27.49
25.89
24.05
21.80
18.98
15.53
11.47
6.84
1.78
-3.58
-9.05
-14.48
-19.77
-24.97
-30.23
-35.80
-41.90
-48.62
-55.80
-62.97
-69.35
-73.95
-75.70
-73.72
-67.60
-57.50
-44.15
-28.68
-12.40
3.47
17.96
30.37
40.26
47.42
51.87
53.85
53.77
52.16
49.53
46.34
43.00
39.81
37.03
34.87
33.43
32.74
32.65
32.91
33.17
33.04
32.19
30.40
27.62
23.94
19.64
15.03
10.41
5.94
1.62
-2.68
-7.13
-11.81
-16.76
-21.85
-26.93
-31.88
-36.72
-41.61
-46.85
-52.69
-59.15
-65.84
-71.87
-76.02
-77.06
-74.06
-66.70
-55.39
-41.18
-25.43
-9.50
5.51
18.91
30.32
39.57
46.54
51.14
53.40
53.49
51.80
48.92
45.42
41.79
38.41
35.44
32.91
30.82
29.07
27.57
26.22
24.88
23.43
21.74
19.66
17.07
13.96
10.41
6.51
2.34
-2.06
-6.69
-11.48
-16.26
-20.78
-24.85
-28.45
-31.87
-35.61
-40.22
-45.99
-52.83
-60.06
-66.59
-71.11
-72.42
-69.72
-62.75
-51.93
-38.14
-22.65
-6.87
7.90
20.60
30.57
37.60
41.90
43.89
44.12
43.07
41.11
38.52
35.59
32.59
29.82
27.50
25.76
24.57
23.81
23.32
22.91
22.45
21.82
20.89
19.56
17.72
15.31
12.26
8.59
4.41
-0.11
-4.75
-9.32
-13.68
-17.80
-21.69
-25.43
-29.16
-33.04
-37.30
-42.08
-47.35
-52.68
-57.23
-59.89
-59.51
-55.33
-47.25
-35.87
-22.39
-8.23
5.30
17.27
27.14
34.77
40.20
43.59
45.13
45.05
43.61
41.12
37.94
34.49
31.18
28.34
26.16
24.63
23.51
22.51
21.40
20.12
18.75
17.42
16.08
14.54
12.48
9.64
5.99
1.75
-2.72
-7.08
-11.13
-14.91
-18.57
-22.34
-26.50
-31.24
-36.70
-42.92
-49.70
-56.53
-62.53
-66.59
-67.58
-64.67
-57.60
-46.84
-33.45
-18.77
-4.13
9.52
21.55
31.67
39.71
45.56
49.15
50.60
50.20
48.40
45.73
42.64
39.48
36.49
33.84
31.63
29.93
28.69
27.79
26.96
25.96
24.56
22.60
19.98
16.73
12.97
8.95
4.93
1.17
-2.25
-5.42
-8.55
-11.91
-15.60
-19.59
-23.71
-27.80
-31.81
-35.86
-40.21
-45.12
-50.77
-57.05
-63.47
-69.17
-72.98
-73.74
-70.56
-63.12
-51.80
-37.60
-21.91
-6.16
8.43
21.05
31.27
39.03
44.46
47.74
49.08
48.68
46.81
43.76
40.02
36.05
32.34
29.24
26.90
25.32
24.44
24.13
24.18
24.36
24.39
23.97
22.91
21.15
18.81
16.06
13.08
9.87
6.38
2.47
-1.90
-6.62
-11.53
-16.46
-21.32
-26.12
-30.93
-35.82
-40.91
-46.35
-52.32
-58.83
-65.48
-71.41
-75.31
-75.89
-72.23
-64.17
-52.36
-37.97
-22.34
-6.70
8.02
21.10
31.96
40.16
45.46
47.93
47.92
46.03
42.89
39.11
35.17
31.43
28.12
25.39
23.30
21.84
20.91
20.36
19.97
19.55
18.91
17.93
16.52
14.62
12.22
9.34
6.01
2.29
-1.73
-5.98
-10.31
-14.55
-18.57
-22.35
-26.00
-29.80
-34.11
-39.23
-45.22
-51.76
-58.09
-63.18
-65.92
-65.40
-61.21
-53.42
-42.65
-29.81
-15.99
-2.19
10.72
22.10
31.45
38.46
42.94
44.92
44.62
42.45
38.96
34.79
30.56
26.76
23.69
21.41
19.78
18.58
17.55
16.59
15.64
14.79
14.02
13.22
12.12
10.35
7.67
4.05
-0.28
-4.92
-9.45
-13.61
-17.37
-20.87
-24.40
-28.24
-32.62
-37.68
-43.38
-49.45
-55.26
-59.83
-61.94
-60.53
-55.03
-45.60
-33.16
-19.09
-4.83
8.51
20.27
30.18
38.14
44.07
47.86
49.45
48.98
46.83
43.61
39.96
36.49
33.55
31.28
29.58
28.29
27.19
26.15
25.13
24.11
23.07
21.84
20.14
17.70
14.28
9.85
4.58
-1.28
-7.36
-13.35
-19.09
-24.49
-29.65
-34.73
-39.97
-45.62
-51.81
-58.43
-65.00
-70.64
-74.16
-74.35
-70.30
-61.80
-49.39
-34.31
-18.13
-2.33
12.01
24.28
34.27
41.91
47.21
50.13
50.77
49.42
46.58
42.91
39.07
35.55
32.66
30.45
28.81
27.60
26.68
25.96
25.35
24.71
23.87
22.65
20.84
18.28
14.87
10.65
5.73
0.36
-5.20
-10.67
-15.86
-20.70
-25.22
-29.54
-33.81
-38.24
-43.04
-48.44
-54.54
-61.05
-67.21
-71.75
-73.21
-70.48
-63.11
-51.57
-37.11
-21.28
-5.54
9.04
21.84
32.49
40.77
46.56
49.86
50.86
50.03
47.94
45.19
42.26
39.41
36.73
34.28
32.13
30.43
29.35
28.97
29.15
29.53
29.63
29.03
27.42
24.77
21.24
17.15
12.84
8.63
4.64
0.83
-3.04
-7.24
-11.89
-16.89
-21.92
-26.62
-30.79
-34.56
-38.35
-42.67
-47.92
-54.15
-60.99
-67.71
-73.28
-76.55
-76.46
-72.34
-64.07
-52.18
-37.72
-22.02
-6.38
8.11
20.69
30.90
38.55
43.64
46.27
46.75
45.47
42.93
39.69
36.31
33.26
30.85
29.26
28.44
28.24
28.38
28.61
28.67
28.35
27.49
26.06
24.09
21.66
18.88
15.77
12.33
8.49
4.28
-0.22
-4.79
-9.20
-13.24
-16.86
-20.14
-23.35
-26.84
-30.98
-36.01
-41.94
-48.41
-54.64
-59.50
-61.75
-60.40
-54.97
-45.73
-33.58
-19.85
-5.92
7.06
18.31
27.45
34.37
39.14
41.85
42.68
41.90
39.91
37.17
34.20
31.46
29.22
27.59
26.49
25.80
25.35
25.04
24.77
24.42
23.83
22.84
21.26
18.96
15.90
12.10
7.79
3.28
-1.10
-5.10
-8.69
-12.07
-15.53
-19.37
-23.79
-28.86
-34.65
-41.14
-48.19
-55.35
-61.70
-65.98
-66.86
-63.36
-55.26
-43.17
-28.42
-12.54
3.01
17.24
29.60
39.88
47.99
53.84
57.39
58.61
57.74
55.23
51.72
47.85
44.08
40.64
37.56
34.78
32.30
30.27
28.85
28.13
28.01
28.11
27.94
27.01
25.09
22.21
18.67
14.88
11.23
7.86
4.72
1.59
-1.80
-5.62
-9.88
-14.44
-19.10
-23.59
-27.77
-31.61
-35.22
-38.87
-42.83
-47.45
-52.92
-59.23
-65.96
-72.21
-76.78
-78.33
-75.80
-68.72
-57.42
-42.90
-26.58
-9.95
5.78
19.77
31.56
40.95
47.91
52.54
55.03
55.65
54.76
52.71
49.89
46.66
43.43
40.49
38.10
36.41
35.38
34.87
34.65
34.45
34.04
33.31
32.20
30.74
28.95
26.77
24.17
21.18
17.91
14.52
11.25
8.20
5.32
2.44
-0.65
-4.12
-8.00
-12.24
-16.75
-21.43
-26.21
-30.97
-35.59
-39.97
-44.13
-48.24
-52.68
-57.79
-63.64
-69.85
-75.47
-79.24
-79.92
-76.59
-69.02
-57.62
-43.33
-27.40
-11.13
4.35
18.14
29.60
38.46
44.68
48.45
50.17
50.29
49.26
47.52
45.41
43.16
40.91
38.73
36.71
34.94
33.55
32.59
31.98
31.55
31.02
30.18
28.85
27.00
24.63
21.72
18.27
14.31
10.01
5.66
1.53
-2.24
-5.67
-8.98
-12.40
-16.07
-19.95
-23.83
-27.52
-30.90
-34.02
-37.08
-40.30
-43.85
-47.87
-52.35
-57.15
-61.91
-66.01
-68.56
-68.59
-65.31
-58.40
-48.08
-35.16
-20.82
-6.35
7.09
18.70
27.97
34.69
38.89
40.82
40.90
39.72
37.82
35.63
33.42
31.31
29.33
27.54
26.01
24.80
23.95
23.41
23.03
22.58
21.87
20.71
19.01
16.77
14.05
11.00
7.74
4.39
0.95
-2.64
-6.40
-10.32
-14.26
-18.06
-21.60
-24.88
-28.09
-31.52
-35.55
-40.40
-46.03
-51.97
-57.37
-61.04
-61.81
-58.84
-51.86
-41.32
-28.24
-13.95
0.22
13.28
24.59
33.82
40.82
45.53
47.91
48.08
46.35
43.29
39.60
35.95
32.83
30.45
28.81
27.81
27.30
27.14
27.16
27.17
26.94
26.27
25.01
23.12
20.63
17.62
14.15
10.28
6.10
1.64
-3.03
-7.86
-12.77
-17.67
-22.37
-26.70
-30.60
-34.12
-37.55
-41.30
-45.77
-51.15
-57.26
-63.44
-68.67
-71.72
-71.48
-67.27
-59.01
-47.26
-33.10
-17.81
-2.64
11.41
23.68
33.77
41.49
46.81
49.83
50.81
50.14
48.31
45.80
42.99
40.14
37.41
34.86
32.56
30.61
29.12
28.18
27.76
27.70
27.68
27.28
26.17
24.19
21.41
18.11
14.59
11.11
7.72
4.32
0.72
-3.20
-7.50
-12.02
-16.57
-21.00
-25.23
-29.27
-33.21
-37.13
-41.15
-45.47
-50.30
-55.82
-61.98
-68.34
-74.02
-77.77
-78.35
-74.95
-67.38
-56.20
-42.49
-27.55
-12.53
1.75
14.77
26.19
35.74
43.12
48.15
50.82
51.42
50.49
48.60
46.32
43.98
41.73
39.57
37.50
35.59
33.96
32.76
31.97
31.46
30.96
30.17
28.86
26.87
24.21
20.97
17.34
13.45
9.43
5.37
1.31
-2.73
-6.78
-10.85
-14.97
-19.15
-23.34
-27.45
-31.38
-35.03
-38.41
-41.73
-45.36
-49.74
-55.14
-61.40
-67.88
-73.46
-76.90
-77.09
-73.41
-65.80
-54.76
-41.17
-26.11
-10.70
3.99
17.05
27.84
36.01
41.52
44.56
45.47
44.66
42.60
39.72
36.49
33.22
30.17
27.51
25.38
23.85
23.00
22.80
23.11
23.62
24.00
23.96
23.41
22.41
21.08
19.46
17.46
14.86
11.44
7.20
2.31
-2.85
-7.93
-12.72
-17.20
-21.49
-25.79
-30.29
-35.13
-40.41
-46.16
-52.14
-57.79
-62.14
-64.00
-62.27
-56.35
-46.44
-33.44
-18.75
-3.81
10.21
22.58
32.97
41.20
47.15
50.71
51.86
50.79
47.98
44.10
39.89
35.96
32.66
30.12
28.27
26.97
26.06
25.37
24.74
23.97
22.84
21.23
19.09
16.49
13.56
10.34
6.82
2.92
-1.40
-6.03
-10.77
-15.34
-19.50
-23.17
-26.47
-29.67
-33.18
-37.39
-42.59
-48.80
-55.62
-62.23
-67.45
-70.02
-68.86
-63.40
-53.76
-40.73
-25.55
-9.66
5.59
19.15
30.40
39.08
45.26
49.17
51.14
51.50
50.55
48.53
45.67
42.21
38.50
34.93
31.91
29.71
28.36
27.68
27.33
26.92
26.18
24.93
23.11
20.69
17.75
14.37
10.74
7.12
3.64
0.31
-3.09
-6.89
-11.29
-16.22
-21.31
-26.08
-30.13
-33.42
-36.35
-39.57
-43.78
-49.42
-56.35
-63.90
-70.89
-75.85
-77.42
-74.66
-67.27
-55.75
-41.22
-25.18
-9.08
5.93
19.19
30.36
39.34
46.11
50.65
53.00
53.39
52.27
50.22
47.75
45.24
42.79
40.45
38.22
36.23
34.60
33.40
32.56
31.84
30.94
29.63
27.83
25.55
22.91
19.94
16.67
13.11
9.29
5.28
1.16
-2.98
-7.14
-11.34
-15.55
-19.75
-23.89
-27.96
-32.03
-36.31
-41.11
-46.71
-53.31
-60.76
-68.48
-75.42
-80.26
-81.70
-78.88
-71.60
-60.39
-46.35
-30.83
-15.12
-0.22
13.18
24.65
33.87
40.65
44.91
46.79
46.62
44.94
42.37
39.45
36.56
33.88
31.45
29.31
27.51
26.16
25.32
24.91
24.75
24.54
23.96
22.80
21.00
18.68
15.97
13.04
9.96
6.75
3.38
-0.21
-4.09
-8.28
-12.76
-17.41
-22.05
-26.53
-30.84
-35.17
-39.88
-45.28
-51.31
-57.43
-62.55
-65.35
-64.71
-60.01
-51.35
-39.42
-25.33
-10.32
4.38
17.73
28.98
37.62
43.48
46.70
47.60
46.63
44.28
41.03
37.39
33.86
30.88
28.74
27.52
27.07
27.05
27.09
26.88
26.23
25.16
23.75
22.11
20.28
18.23
15.86
13.07
9.74
5.88
1.51
-3.26
-8.22
-13.13
-17.78
-22.03
-25.96
-29.84
-34.08
-39.06
-44.98
-51.65
-58.49
-64.46
-68.28
-68.72
-64.92
-56.71
-44.66
-29.94
-14.04
1.64
15.98
28.30
38.28
45.86
51.12
54.19
55.26
54.62
52.66
49.85
46.69
43.57
40.74
38.28
36.21
34.52
33.23
32.35
31.78
31.30
30.57
29.28
27.19
24.36
20.91
17.08
13.03
8.86
4.57
0.08
-4.62
-9.60
-14.76
-19.93
-24.84
-29.25
-33.01
-36.24
-39.28
-42.63
-46.80
-52.10
-58.41
-65.13
-71.19
-75.26
-76.07
-72.72
-64.98
-53.31
-38.81
-22.88
-6.87
8.14
21.45
32.67
41.61
48.20
52.45
54.49
54.58
53.08
50.45
47.16
43.61
40.10
36.90
34.16
32.05
30.61
29.84
29.62
29.70
29.74
29.34
28.13
25.93
22.77
18.96
14.93
11.05
7.52
4.24
0.89
-2.89
-7.30
-12.27
-17.48
-22.52
-27.01
-30.85
-34.17
-37.32
-40.79
-45.04
-50.31
-56.54
-63.20
-69.36
-73.82
-75.34
-72.95
-66.22
-55.46
-41.59
-25.95
-9.96
5.19
18.70
30.12
39.30
46.18
50.72
52.99
53.15
51.62
48.96
45.77
42.57
39.65
37.05
34.76
32.74
31.04
29.81
29.10
28.84
28.73
28.35
27.25
25.24
22.36
18.91
15.23
11.57
7.99
4.42
0.71
-3.14
-7.08
-10.96
-14.70
-18.32
-21.93
-25.62
-29.44
-33.43
-37.71
-42.53
-48.10
-54.50
-61.27
-67.47
-71.76
-72.75
-69.50
-61.74
-50.04
-35.55
-19.73
-4.03
10.43
22.94
33.11
40.83
46.13
49.14
50.00
49.00
46.53
43.19
39.60
36.25
33.43
31.18
29.40
27.98
26.88
26.09
25.54
25.02
24.26
22.99
21.05
18.52
15.63
12.64
9.69
6.78
3.73
0.32
-3.56
-7.88
-12.39
-16.76
-20.77
-24.36
-27.79
-31.47
-35.84
-41.17
-47.37
-53.97
-60.13
-64.74
-66.60
-64.75
-58.65
-48.54
-35.33
-20.47
-5.52
8.23
19.95
29.37
36.47
41.36
44.06
44.62
43.19
40.17
36.16
31.86
27.85
24.51
21.96
20.19
19.13
18.64
18.56
18.61
18.46
17.86
16.65
14.92
12.83
10.50
7.95
5.07
1.73
-2.07
-6.17
-10.32
-14.29
-17.94
-21.36
-24.79
-28.53
-32.92
-38.21
-44.35
-50.86
-56.81
-60.95
-62.06
-59.34
-52.60
-42.34
-29.56
-15.40
-1.00
12.62
24.63
34.37
41.40
45.61
47.17
46.50
44.18
40.79
36.84
32.78
28.93
25.53
22.71
20.45
18.63
17.10
15.76
14.55
13.46
12.42
11.24
9.65
7.33
4.07
-0.02
-4.66
-9.37
-13.71
-17.54
-20.98
-24.40
-28.22
-32.78
-38.16
-44.21
-50.47
-56.17
-60.33
-61.88
-59.89
-53.95
-44.28
-31.80
-17.84
-3.78
9.26
20.55
29.75
36.70
41.34
43.73
44.07
42.74
40.20
36.99
33.50
30.00
26.67
23.60
20.86
18.49
16.48
14.71
13.09
11.51
9.89
8.12
6.06
3.51
0.34
-3.44
-7.61
-11.79
-15.64
-19.02
-22.02
-25.01
-28.44
-32.76
-38.14
-44.45
-51.08
-57.07
-61.18
-62.21
-59.36
-52.44
-41.96
-28.95
-14.70
-0.42
12.87
24.43
33.72
40.36
44.16
45.16
43.67
40.22
35.53
30.29
25.09
20.35
16.32
13.14
10.88
9.52
8.98
9.10
9.62
10.22
10.47
10.03
8.64
6.26
3.01
-0.79
-4.82
-8.83
-12.74
-16.67
-20.87
-25.70
-31.37
-37.88
-44.86
-51.53
-56.82
-59.57
-58.79
-53.95
-45.17
-33.25
-19.41
-5.09
8.46
20.33
30.00
37.24
42.04
44.44
44.60
42.81
39.59
35.60
31.45
27.58
24.12
21.02
18.14
15.49
13.25
11.56
10.51
9.88
9.22
7.98
5.71
2.25
-2.22
-7.25
-12.33
-17.06
-21.31
-25.26
-29.32
-33.94
-39.39
-45.66
-52.29
-58.42
-62.91
-64.56
-62.40
-55.98
-45.58
-32.13
-17.02
-1.76
12.38
24.57
34.42
41.86
47.01
50.02
51.14
50.62
48.83
46.17
43.06
39.78
36.54
33.43
30.55
28.03
26.00
24.53
23.58
22.84
21.87
20.19
17.46
13.59
8.83
3.58
-1.70
-6.73
-11.53
-16.34
-21.55
-27.51
-34.38
-41.96
-49.69
-56.64
-61.64
-63.50
-61.31
-54.69
-44.00
-30.22
-14.76
0.86
15.41
27.99
38.15
45.67
50.47
52.60
52.23
49.82
46.05
41.75
37.62
34.08
31.20
28.77
26.57
24.54
22.81
21.56
20.85
20.44
19.82
18.47
15.99
12.29
7.55
2.13
-3.54
-9.15
-14.53
-19.67
-24.74
-30.09
-36.11
-43.17
-51.28
-59.94
-68.07
-74.11
-76.57
-74.32
-67.09
-55.47
-40.73
-24.44
-8.01
7.54
21.60
33.79
43.83
51.40
56.25
58.30
57.76
55.17
51.28
46.86
42.55
38.72
35.45
32.65
30.17
27.88
25.76
23.81
21.99
20.19
18.19
15.70
12.48
8.47
3.80
-1.24
-6.31
-11.21
-15.90
-20.48
-25.15
-30.11
-35.54
-41.59
-48.40
-55.91
-63.74
-71.06
-76.62
-79.04
-77.22
-70.69
-59.82
-45.70
-29.79
-13.59
1.70
15.29
26.75
35.86
42.48
46.59
48.25
47.75
45.54
42.23
38.43
34.66
31.26
28.42
26.19
24.58
23.53
22.99
22.84
22.86
22.75
22.07
20.42
17.55
13.46
8.46
3.06
-2.24
-7.13
-11.59
-15.83
-20.18
-24.97
-30.42
-36.62
-43.47
-50.53
-57.06
-62.03
-64.33
-63.09
-57.87
-48.89
-36.86
-22.91
-8.29
5.82
18.49
29.07
37.18
42.68
45.63
46.26
44.93
42.15
38.53
34.75
31.36
28.65
26.67
25.26
24.18
23.28
22.52
21.84
21.19
20.35
19.06
17.04
14.11
10.28
5.75
0.83
-4.14
-8.89
-13.30
-17.48
-21.69
-26.38
-31.88
-38.33
-45.34
-52.07
-57.30
-59.80
-58.64
-53.39
-44.32
-32.12
-17.84
-2.62
12.42
26.30
38.18
47.50
53.96
57.60
58.74
57.83
55.40
51.96
47.97
43.88
40.09
36.88
34.39
32.61
31.35
30.35
29.37
28.24
26.82
24.98
22.53
19.32
15.27
10.45
5.06
-0.64
-6.40
-12.04
-17.46
-22.66
-27.73
-32.84
-38.28
-44.34
-51.14
-58.44
-65.54
-71.27
-74.33
-73.54
-68.27
-58.62
-45.30
-29.53
-12.70
3.90
19.25
32.68
43.70
52.03
57.53
60.25
60.47
58.71
55.61
51.83
47.86
44.02
40.46
37.25
34.49
32.29
30.71
29.64
28.85
27.95
26.58
24.49
21.63
18.13
14.14
9.83
5.29
0.50
-4.56
-9.88
-15.33
-20.74
-25.90
-30.71
-35.20
-39.57
-44.16
-49.28
-55.12
-61.41
-67.45
-72.06
-73.90
-71.84
-65.34
-54.69
-40.85
-25.24
-9.22
6.01
19.72
31.41
40.77
47.61
51.85
53.62
53.26
51.30
48.29
44.76
41.09
37.57
34.39
31.67
29.49
27.79
26.40
25.11
23.65
21.85
19.61
16.93
13.83
10.30
6.29
1.75
-3.26
-8.58
-13.94
-19.08
-23.84
-28.22
-32.27
-36.15
-40.01
-44.01
-48.38
-53.27
-58.66
-64.11
-68.69
-71.19
-70.42
-65.64
-56.82
-44.67
-30.39
-15.31
-0.64
12.76
24.33
33.72
40.67
45.03
46.77
46.05
43.31
39.21
34.53
29.98
26.01
22.83
20.40
18.64
17.45
16.74
16.43
16.35
16.27
15.96
15.22
13.88
11.82
8.97
5.31
0.97
-3.78
-8.57
-13.03
-16.96
-20.38
-23.56
-26.84
-30.59
-35.03
-40.15
-45.67
-50.92
-55.01
-56.86
-55.54
-50.53
-41.90
-30.31
-16.90
-3.00
10.18
21.68
30.84
37.34
41.11
42.35
41.43
38.91
35.38
31.46
27.66
24.32
21.60
19.50
17.95
16.85
16.12
15.67
15.42
15.24
14.85
13.94
12.19
9.44
5.70
1.23
-3.53
-8.18
-12.38
-16.06
-19.36
-22.60
-26.21
-30.55
-35.85
-42.04
-48.62
-54.72
-59.17
-60.75
-58.59
-52.36
-42.45
-29.85
-15.89
-1.91
10.98
22.07
30.99
37.69
42.25
44.85
45.72
45.13
43.42
40.98
38.20
35.45
33.02
31.01
29.42
28.18
27.11
26.07
24.88
23.38
21.43
18.94
15.87
12.21
7.98
3.27
-1.79
-6.99
-12.09
-16.88
-21.22
-25.14
-28.87
-32.75
-37.20
-42.50
-48.61
-55.06
-61.00
-65.27
-66.68
-64.38
-57.99
-47.87
-34.89
-20.31
-5.43
8.61
21.06
31.46
39.62
45.49
49.09
50.51
49.92
47.68
44.32
40.43
36.52
32.98
29.94
27.40
25.32
23.63
22.26
21.09
20.00
18.81
17.39
15.65
13.49
10.81
7.50
3.49
-1.17
-6.27
-11.53
-16.69
-21.59
-26.22
-30.65
-35.01
-39.46
-44.22
-49.45
-55.15
-60.98
-66.12
-69.41
-69.61
-65.84
-57.91
-46.40
-32.43
-17.42
-2.62
11.07
23.07
33.10
40.97
46.56
49.78
50.68
49.51
46.73
42.95
38.82
34.88
31.41
28.48
25.97
23.75
21.76
20.10
18.93
18.29
18.01
17.64
16.64
14.54
11.15
6.67
1.53
-3.73
-8.75
-13.39
-17.76
-22.03
-26.47
-31.29
-36.67
-42.73
-49.42
-56.36
-62.80
-67.65
-69.69
-67.98
-62.12
-52.45
-39.87
-25.68
-11.20
2.55
14.88
25.43
34.00
40.45
44.67
46.60
46.39
44.45
41.32
37.63
33.94
30.60
27.74
25.36
23.40
21.77
20.40
19.23
18.14
16.95
15.50
13.56
11.02
7.77
3.84
-0.68
-5.54
-10.52
-15.33
-19.77
-23.79
-27.46
-31.02
-34.77
-38.98
-43.80
-49.10
-54.42
-58.97
-61.72
-61.66
-58.07
-50.78
-40.25
-27.44
-13.65
-0.06
12.35
22.94
31.31
37.24
40.63
41.52
40.23
37.29
33.41
29.30
25.54
22.45
20.17
18.63
17.64
17.00
16.45
15.83
15.02
14.03
12.79
11.26
9.32
6.78
3.56
-0.28
-4.53
-8.89
-13.12
-17.15
-21.07
-25.12
-29.57
-34.61
-40.29
-46.37
-52.26
-57.11
-59.90
-59.69
-55.95
-48.66
-38.41
-26.26
-13.40
-0.93
10.29
19.71
27.00
31.98
34.63
35.09
33.67
30.88
27.35
23.65
20.23
17.28
14.85
12.85
11.28
10.17
9.58
9.49
9.71
9.82
9.38
7.98
5.41
1.76
-2.70
-7.54
-12.38
-16.91
-20.97
-24.65
-28.23
-32.19
-37.02
-43.07
-50.20
-57.69
-64.27
-68.43
-68.89
-64.99
-56.90
-45.56
-32.26
-18.28
-4.65
7.93
18.98
28.10
34.92
39.25
41.07
40.69
38.70
35.83
32.81
30.13
28.00
26.36
24.97
23.59
22.16
20.80
19.75
19.15
18.91
18.59
17.57
15.34
11.72
6.94
1.46
-4.20
-9.75
-15.12
-20.41
-25.83
-31.51
-37.62
-44.29
-51.58
-59.18
-66.32
-71.73
-73.95
-71.84
-64.94
-53.74
-39.45
-23.64
-7.77
7.06
20.18
31.25
40.05
46.42
50.23
51.60
50.88
48.71
45.81
42.82
40.05
37.49
34.93
32.21
29.34
26.61
24.32
22.69
21.66
20.97
20.23
19.07
17.26
14.65
11.24
7.07
2.34
-2.64
-7.55
-12.16
-16.36
-20.29
-24.18
-28.37
-33.15
-38.73
-45.14
-52.06
-58.75
-64.07
-66.70
-65.41
-59.60
-49.38
-35.69
-19.90
-3.55
12.04
25.95
37.61
46.74
53.24
57.13
58.55
57.81
55.41
51.91
47.94
44.02
40.60
37.93
36.09
35.04
34.59
34.48
34.38
34.01
33.09
31.50
29.19
26.20
22.64
18.66
14.41
10.01
5.55
1.03
-3.58
-8.31
-13.08
-17.73
-22.05
-25.93
-29.40
-32.73
-36.37
-40.75
-46.14
-52.40
-58.88
-64.53
-68.02
-68.15
-64.10
-55.69
-43.45
-28.47
-12.06
4.50
20.11
34.02
45.72
54.92
61.46
65.38
66.86
66.29
64.16
61.07
57.64
54.34
51.49
49.27
47.74
46.88
46.60
46.69
46.86
46.75
