1635933830.00
64.000000
-0.00
-0.00
-0.00
-0.00
-0.00
-0.00
-0.00
-0.00
-0.00
-0.00
0.00
0.01
0.01
-0.00
-0.03
-0.05
-0.05
0.00
0.13
0.36
0.66
1.01
1.37
1.72
2.06
2.40
2.79
3.24
3.80
4.43
5.09
5.75
6.36
6.93
7.50
8.11
8.79
9.64
10.58
11.55
12.45
13.27
14.07
15.00
16.24
17.91
20.18
22.89
25.79
28.63
31.30
33.86
36.59
39.84
43.87
49.04
55.06
61.55
68.07
74.33
80.40
86.60
93.43
101.22
110.45
120.72
131.52
142.28
152.65
162.68
172.73
183.72
193.93
205.44
219.00
235.21
253.50
271.41
284.72
288.38
278.29
252.82
213.96
165.75
113.27
60.76
10.63
-36.47
-81.16
-124.31
-166.79
-208.97
-251.22
-293.05
-332.74
-367.09
-391.80
-402.72
-396.80
-373.71
-335.58
-287.00
-233.91
-182.36
-137.33
-101.63
-75.64
-57.61
-44.73
-34.32
-24.93
-16.36
-8.86
-2.24
4.34
11.61
18.98
23.68
21.36
7.79
-19.22
-58.39
-105.56
-155.48
-203.98
-249.05
-290.69
-329.68
-366.01
-398.79
-426.21
-446.67
-459.13
-463.45
-459.93
-448.81
-430.00
-402.90
-366.98
-322.12
-269.13
-209.76
-146.59
-82.42
-19.86
39.13
93.31
142.01
184.89
221.70
252.19
276.13
293.47
304.48
309.76
310.18
306.71
300.23
291.45
280.87
268.80
255.54
241.37
226.65
211.75
196.99
182.62
168.78
155.52
142.84
130.73
119.18
108.21
97.86
88.13
79.03
70.55
62.66
55.36
48.62
42.42
36.75
31.59
26.93
22.71
18.93
15.56
12.58
9.95
7.66
5.70
4.03
2.68
1.60
0.77
0.15
-0.29
-0.57
-0.70
-0.73
-0.65
-0.48
-0.24
0.05
0.41
0.82
1.29
1.82
2.42
3.10
3.83
4.57
5.31
6.06
6.86
7.75
8.80
10.05
11.45
12.95
14.46
15.92
17.36
18.85
20.43
22.20
24.19
26.30
28.42
30.41
32.23
33.93
35.72
37.67
39.89
42.27
44.38
45.56
45.15
42.69
38.07
31.61
23.68
14.76
5.14
-5.38
-17.29
-31.02
-46.51
-63.02
-78.46
-91.56
-101.24
-107.25
-110.51
-112.61
-115.06
-118.37
-122.12
-124.02
-121.76
-114.17
-101.21
-84.75
-67.59
-52.19
-39.48
-28.79
-18.73
-8.47
2.16
13.27
25.87
41.31
60.52
82.33
102.86
116.73
119.49
110.29
92.19
70.07
48.05
27.38
6.42
-16.87
-42.27
-66.00
-81.87
-84.56
-73.26
-53.09
-33.59
-24.84
-33.20
-58.10
-91.66
-122.26
-139.20
-136.96
-117.01
-86.22
-53.09
-23.97
-1.08
17.26
33.98
51.06
68.42
84.48
97.22
106.06
112.80
119.06
127.98
140.93
156.98
173.22
185.70
190.21
183.55
164.53
134.71
98.54
61.81
29.93
6.09
-9.56
-19.06
-24.91
-28.51
-29.73
-27.66
-22.27
-15.03
-8.48
-4.86
-4.91
-7.34
-9.72
-9.77
-6.34
-0.25
6.34
10.94
11.89
9.05
3.75
-2.30
-7.64
-12.07
-16.50
-22.42
-31.23
-43.88
-60.60
-80.65
-101.85
-119.84
-130.04
-128.22
-112.69
-85.67
-52.97
-21.95
1.42
14.57
18.89
17.82
15.00
12.59
11.02
9.89
8.94
8.50
9.05
10.67
12.54
13.63
13.33
11.66
9.60
8.34
8.61
10.28
12.45
13.83
13.56
11.59
8.67
6.19
5.69
8.62
15.69
26.21
37.60
45.79
46.49
37.14
18.63
-4.58
-26.01
-39.79
-43.11
-37.06
-25.36
-12.18
-0.19
9.87
18.23
24.73
28.05
26.33
18.40
4.97
-11.40
-27.52
-40.65
-49.98
-56.74
-63.37
-72.47
-85.86
-104.01
-125.70
-147.84
-165.62
-173.26
-165.85
-141.25
-101.77
-53.87
-6.06
34.16
63.00
81.17
92.43
101.02
109.31
117.05
122.28
122.98
118.37
109.11
96.55
81.85
65.61
48.09
29.55
10.94
-6.21
-20.19
-29.75
-34.56
-35.28
-33.15
-29.51
-25.28
-20.65
-15.33
-8.77
-0.50
9.21
19.47
29.04
36.66
41.38
42.82
41.14
37.05
31.59
26.01
21.59
19.35
19.81
22.72
27.15
31.64
34.76
35.45
33.35
29.00
23.62
18.76
15.84
15.83
18.98
24.73
31.97
39.25
45.17
48.74
49.54
47.96
45.17
42.84
42.67
45.79
52.31
61.13
70.22
77.25
80.23
78.15
71.20
60.60
48.22
36.10
26.03
19.30
16.62
18.15
23.59
32.32
43.51
56.25
69.64
82.85
95.21
106.18
115.26
121.84
125.11
124.10
117.90
106.03
88.76
67.28
43.44
19.31
-3.51
-24.21
-42.80
-59.74
-75.33
-89.26
-100.73
-108.83
-113.12
-113.88
-111.98
-108.43
-103.96
-98.89
-93.43
-87.89
-82.87
-78.98
-76.46
-74.80
-72.96
-69.80
-64.71
-57.92
-50.24
-42.49
-34.85
-26.90
-18.00
-8.10
1.73
9.57
13.39
12.17
6.46
-1.79
-10.16
-16.80
-21.07
-23.53
-25.23
-27.01
-29.18
-31.66
-34.30
-37.03
-39.65
-41.45
-40.83
-35.61
-23.72
-4.17
22.13
52.35
82.32
107.70
125.13
132.97
131.36
121.64
105.70
85.54
63.21
40.94
21.12
5.91
-3.57
-7.70
-8.38
-8.12
-9.01
-11.80
-15.94
-20.30
-24.17
-27.87
-32.37
-38.51
-46.13
-53.97
-60.24
-63.62
-63.89
-61.87
-58.95
-56.37
-55.03
-55.34
-57.32
-60.42
-63.39
-64.31
-61.14
-52.58
-38.85
-21.89
-4.65
10.05
20.52
26.46
28.58
27.74
24.54
19.22
12.08
3.88
-4.16
-10.84
-15.34
-17.66
-18.45
-18.58
-18.65
-18.76
-18.55
-17.47
-15.11
-11.29
-6.18
-0.22
5.95
11.62
16.07
18.69
19.08
17.06
12.55
5.51
-4.05
-15.62
-27.63
-37.15
-40.43
-34.12
-16.99
9.04
38.99
66.52
86.19
95.37
94.60
86.46
73.71
58.08
40.23
20.85
1.65
-14.47
-24.50
-26.88
-22.54
-14.67
-7.37
-3.94
-5.74
-12.19
-21.62
-32.36
-43.29
-53.78
-63.23
-70.82
-75.55
-76.69
-74.37
-69.84
-65.29
-63.19
-65.36
-72.12
-81.81
-90.93
-95.16
-90.82
-76.37
-53.23
-25.41
1.88
24.04
38.52
45.26
45.95
42.72
37.04
29.31
19.32
7.00
-7.02
-21.37
-34.50
-45.28
-53.37
-59.00
-62.53
-64.07
-63.41
-60.40
-55.40
-49.38
-43.58
-38.88
-35.34
-32.25
-28.69
-24.37
-20.05
-17.31
-17.85
-22.62
-31.28
-42.32
-53.62
-63.20
-69.57
-71.98
-70.30
-65.00
-57.13
-48.22
-40.21
-34.97
-33.83
-37.24
-44.61
-54.64
-65.65
-75.93
-83.99
-88.63
-88.96
-84.59
-75.85
-63.74
-49.87
-35.99
-23.57
-13.57
-6.54
-2.91
-3.28
-8.13
-17.13
-28.37
-37.96
-40.71
-31.62
-7.75
30.60
79.84
134.22
187.53
234.55
271.85
297.86
312.46
316.70
312.48
302.25
288.51
273.07
256.61
238.80
218.94
197.04
174.55
154.42
140.31
135.32
140.66
154.88
173.96
192.37
204.70
207.30
199.27
182.28
159.52
134.02
107.25
78.79
46.71
8.69
-36.78
-89.10
-145.01
-198.62
-242.95
-272.47
-285.74
-286.97
-285.44
-292.62
-317.74
-363.83
-425.99
-492.86
-550.64
-587.96
-599.41
-586.47
-555.47
-514.40
-469.63
-424.29
-378.72
-331.97
-283.54
-234.57
-187.17
-143.55
-104.88
-70.79
-39.67
-9.16
23.62
61.76
107.84
162.78
224.43
286.92
341.70
380.07
396.34
389.69
364.28
327.02
284.63
241.31
197.92
152.61
102.19
43.70
-24.11
-99.80
-178.63
-252.97
-314.04
-354.55
-371.25
-366.10
-344.87
-314.84
-282.08
-250.00
-219.60
-190.53
-162.04
-133.15
-102.59
-69.26
-33.44
1.96
31.57
49.38
51.90
40.35
21.00
2.83
-6.19
-2.21
13.72
37.27
63.55
89.58
114.94
140.87
168.87
200.14
235.82
277.44
326.54
383.08
443.72
501.21
546.06
569.72
567.89
542.05
498.26
443.94
384.80
323.93
263.15
205.42
155.90
120.46
102.46
99.97
105.57
109.29
103.07
84.18
55.66
23.99
-4.72
-27.59
-45.55
-61.97
-80.65
-104.77
-137.03
-179.92
-235.05
-301.58
-374.60
-444.94
-501.20
-533.25
-535.35
-507.71
-455.99
-389.44
-318.62
-253.30
-200.66
-163.90
-141.63
-128.55
-117.57
-102.84
-82.23
-58.01
-35.18
-18.55
-10.18
-8.89
-11.28
-13.80
-14.22
-11.97
-7.20
0.06
10.43
25.00
45.00
71.24
104.12
143.98
191.14
245.41
305.06
365.89
421.37
464.04
488.02
491.16
475.86
447.95
413.95
378.62
343.59
307.74
268.67
224.94
177.50
129.82
86.71
52.56
29.86
18.62
16.72
21.00
28.56
37.39
46.56
55.94
65.69
75.81
85.86
94.79
100.96
102.31
96.98
84.05
64.12
39.29
12.46
-14.07
-39.41
-64.35
-91.23
-123.30
-163.56
-213.36
-270.89
-330.32
-382.42
-416.68
-424.61
-403.13
-356.34
-294.60
-231.36
-178.77
-144.25
-128.94
-128.55
-135.79
-143.35
-146.13
-142.28
-132.76
-120.00
-106.13
-91.73
-75.84
-57.28
-35.91
-13.29
7.93
25.33
38.02
47.09
55.05
64.46
76.49
90.64
105.16
117.72
126.21
129.26
127.39
123.31
121.41
125.80
138.23
156.62
175.49
188.12
188.82
175.46
149.66
115.55
77.52
38.78
1.03
-34.79
-67.68
-96.91
-121.54
-140.73
-153.75
-160.53
-161.72
-158.81
-153.64
-143.69
-127.45
-105.09
-79.09
-52.63
-28.34
-7.57
8.72
19.43
23.55
19.70
7.80
-12.77
-41.80
-77.57
-116.27
-152.32
-179.52
-192.85
-190.83
-175.68
-152.52
-125.69
-99.70
-77.45
-60.10
-47.77
-40.27
-37.67
-39.59
-44.96
-51.48
-54.81
-51.62
-41.73
-28.50
-16.83
-10.70
-11.13
-16.30
-22.23
-22.01
-10.81
11.70
41.02
70.70
95.89
115.43
131.44
149.08
178.14
226.70
296.94
383.07
473.25
553.97
613.71
645.13
622.23
534.93
395.56
237.43
97.73
-0.61
-54.09
-73.38
-75.23
-73.89
-74.25
-76.22
-78.50
-81.86
-89.18
-102.85
-119.34
-139.30
-160.72
-177.66
-185.88
-185.39
-180.61
-177.72
-180.72
-190.39
-205.32
-221.84
-234.64
-240.19
-237.98
-230.10
-223.49
-221.72
-225.69
-234.65
-246.04
-256.42
-263.38
-266.32
-266.32
-265.22
-263.82
-262.09
-259.57
-254.96
-246.43
-232.78
-213.98
-191.16
-166.12
-140.17
-114.38
-89.79
-66.84
-45.54
-26.05
-8.74
5.75
16.81
24.41
28.82
30.42
29.98
29.28
29.76
32.09
35.99
40.55
44.98
48.73
51.18
52.33
54.83
60.83
70.91
83.56
96.25
106.98
114.88
119.23
121.09
126.93
141.91
167.56
200.84
236.15
268.74
295.93
315.29
328.08
344.36
372.21
414.09
465.46
517.90
564.74
602.79
629.58
648.44
674.04
718.03
784.50
868.06
958.05
1045.89
1127.00
1197.27
1189.55
1061.57
810.03
479.17
133.70
-176.74
-429.49
-602.13
-719.37
-800.85
-848.26
-860.45
-839.37
-792.68
-738.80
-689.07
-648.99
-621.71
-603.23
-581.68
-548.86
-502.76
-448.06
-392.63
-341.68
-297.57
-260.39
-226.24
-188.38
-144.16
-95.08
-45.57
-0.49
38.25
70.67
100.43
132.16
169.24
210.32
251.73
289.93
323.20
352.71
380.98
416.07
465.20
530.62
606.86
683.00
746.36
786.20
796.81
742.90
612.59
423.22
214.86
26.76
-120.43
-225.45
-296.11
-340.86
-366.12
-370.83
-355.33
-324.49
-288.08
-255.39
-231.83
-218.48
-211.61
-207.47
-199.43
-184.05
-162.41
-141.07
-126.19
-121.09
-124.33
-131.89
-140.20
-144.71
-143.77
-139.50
-140.45
-148.90
-166.31
-190.34
-216.72
-241.89
-262.70
-278.12
-289.16
-302.29
-322.19
-350.60
-384.34
-417.79
-446.02
-465.63
-475.56
-454.64
-394.98
-302.77
-197.22
-97.79
-15.22
48.46
96.03
131.34
157.54
170.14
168.18
151.91
123.86
87.72
47.05
5.55
-32.28
-53.04
-50.96
-26.23
14.01
58.84
97.76
124.03
136.53
139.07
137.63
134.22
129.26
122.33
113.41
103.62
94.77
88.43
85.55
86.32
88.54
90.50
92.85
97.15
105.70
119.57
136.96
153.01
161.17
155.13
130.95
93.83
53.51
20.08
-0.26
-7.04
-4.13
3.08
10.25
15.78
20.47
25.03
29.34
32.47
33.12
31.55
29.02
26.90
26.62
29.03
33.60
39.11
44.34
48.68
52.57
57.24
63.84
73.33
86.15
101.61
118.42
134.86
149.70
162.80
174.87
186.42
197.85
209.20
219.88
228.93
234.94
236.57
232.56
225.58
216.91
207.38
197.34
186.73
175.29
161.84
145.68
127.16
107.57
87.89
68.92
51.09
34.63
19.66
3.68
-14.91
-35.65
-56.23
-74.56
-89.65
-101.71
-111.67
-120.67
-135.06
-159.06
-192.29
-230.18
-267.65
-301.66
-331.52
-357.88
-381.79
-412.68
-456.66
-512.66
-573.03
-629.24
-676.30
-713.07
-740.64
-760.81
-786.35
-825.69
-877.79
-932.96
-980.03
-1012.56
-1029.01
-1030.80
-950.78
-759.02
-476.27
-164.28
117.40
339.59
499.93
609.13
680.57
725.67
741.55
725.64
684.08
629.86
576.15
530.24
493.63
464.15
437.97
402.25
347.31
270.63
181.98
99.34
34.97
-6.26
-25.24
-24.25
-9.85
13.72
44.69
81.80
121.28
157.19
185.72
207.17
224.46
236.79
240.34
230.46
205.50
167.76
123.69
82.79
54.06
42.29
45.43
56.57
68.14
75.39
77.02
74.32
69.82
65.41
61.09
57.39
52.81
45.28
32.62
12.28
-16.83
-52.64
-89.19
-117.36
-126.98
-110.41
-64.96
5.43
89.11
171.16
237.39
277.84
288.77
272.50
235.78
187.44
135.41
82.74
30.11
-23.35
-79.09
-138.67
-202.80
-270.36
-337.03
-395.53
-439.93
-464.47
-465.81
-444.70
-406.36
-358.80
-310.05
-265.92
-213.39
-149.45
-80.19
-17.35
30.24
60.98
78.75
89.01
95.97
101.64
103.65
100.04
91.06
79.09
67.23
57.85
52.20
50.14
50.82
51.07
49.06
44.87
40.07
36.39
34.71
35.03
36.26
38.07
39.08
39.05
38.78
39.50
41.77
44.94
47.56
47.70
44.57
38.01
29.23
20.22
12.71
7.20
1.83
-4.49
-11.97
-19.95
-26.40
-28.09
-21.45
-3.44
27.61
71.45
125.81
180.80
224.64
246.21
239.30
205.73
155.15
101.65
58.59
34.28
29.63
39.77
56.54
71.52
78.54
74.81
60.99
40.53
18.23
-1.67
-16.32
-25.04
-28.80
-28.63
-25.07
-18.33
-9.02
1.03
9.19
13.51
13.66
11.00
8.21
8.04
11.74
18.76
26.85
33.13
34.92
30.84
21.17
7.71
-6.89
-20.29
-31.30
-40.39
-49.12
-59.79
-73.00
-88.93
-105.58
-119.49
-127.07
-126.12
-118.35
-105.55
-91.41
-79.59
-71.79
-67.38
-64.21
-60.23
-54.14
-45.32
-32.81
-15.54
7.02
33.15
57.87
74.63
78.80
71.48
60.51
57.33
70.47
100.24
137.58
167.99
179.35
167.90
139.51
105.79
77.80
60.80
53.62
51.53
49.53
45.85
41.91
39.83
40.25
41.32
39.28
30.14
15.15
-3.71
-23.06
-39.78
-52.95
-64.87
-80.37
-104.27
-138.06
-177.46
-213.13
-233.02
-227.30
-192.35
-132.20
-56.55
23.18
97.68
161.41
211.56
247.11
267.62
273.39
266.17
249.49
227.71
204.56
181.91
159.42
135.97
110.87
84.53
58.20
33.00
9.02
-15.12
-41.72
-73.26
-110.71
-152.40
-193.52
-226.98
-245.41
-243.81
-221.63
-182.82
-134.31
-83.28
-35.04
7.66
44.00
73.92
97.51
115.09
127.62
136.55
143.22
148.09
150.57
149.82
145.86
139.90
133.89
129.14
125.35
120.30
111.08
95.30
72.18
42.60
8.71
-26.53
-59.57
-86.88
-105.71
-114.98
-115.96
-112.20
-108.56
-109.68
-118.70
-136.55
-162.40
-194.66
-231.61
-272.10
-315.74
-363.06
-415.06
-472.22
-532.67
-591.36
-640.47
-671.55
-678.58
-660.50
-621.62
-569.80
-513.30
-457.49
-404.40
-354.00
-305.93
-260.68
-219.34
-182.88
-150.93
-121.89
-92.47
-60.33
-25.39
10.22
43.33
71.62
94.12
112.07
127.70
145.15
167.32
194.47
224.40
254.04
281.20
304.75
325.51
344.72
365.68
390.18
417.21
443.16
463.74
475.88
477.72
469.97
438.66
377.01
289.70
191.47
97.57
16.66
-45.54
-93.93
-132.16
-162.65
-184.86
-198.75
-206.50
-211.57
-217.10
-224.40
-233.55
-242.70
-250.40
-254.27
-253.29
-248.05
-240.05
-230.09
-217.28
-200.00
-175.92
-144.29
-105.23
-60.78
-14.32
30.65
71.93
109.18
143.02
174.97
206.13
237.76
270.31
302.48
330.18
346.93
345.63
321.63
276.00
216.00
153.03
97.82
56.01
26.65
4.39
-16.04
-36.22
-53.29
-62.56
-61.18
-50.50
-35.49
-21.98
-13.37
-9.47
-7.29
-3.29
4.45
15.58
28.49
42.08
56.56
72.89
91.37
110.80
128.36
140.96
146.93
147.09
144.52
142.99
145.24
151.66
160.48
168.59
172.53
169.34
156.64
132.58
96.14
47.97
-8.75
-68.17
-122.89
-166.17
-193.55
-204.18
-200.14
-184.81
-161.07
-130.69
-94.93
-55.39
-14.80
23.66
57.45
86.12
111.58
137.63
168.64
208.09
257.09
313.29
370.79
421.02
455.38
468.26
459.15
432.87
397.45
361.02
329.10
303.73
284.43
270.11
260.37
255.50
255.52
259.15
263.67
265.87
263.29
255.14
242.18
226.12
208.24
188.57
165.75
137.80
103.15
61.65
14.92
-34.07
-82.00
-126.37
-166.14
-201.70
-234.22
-264.66
-293.01
-318.24
-338.77
-353.43
-362.19
-366.45
-368.95
-373.40
-384.05
-404.65
-437.33
-481.24
-531.75
-580.80
-618.78
-637.58
-633.50
-608.57
-569.25
-523.68
-478.64
-437.68
-401.13
-367.34
-334.69
-302.71
-272.31
-244.42
-219.16
-195.59
-172.08
-146.98
-118.50
-85.78
-49.17
-10.74
27.54
64.30
99.17
132.56
165.59
200.77
240.35
285.30
333.58
383.10
431.50
476.21
513.45
538.69
549.29
544.23
524.55
491.26
449.17
404.07
360.06
316.56
269.67
217.56
161.76
107.82
60.86
28.19
14.79
20.80
40.18
50.42
34.37
-12.78
-63.98
-106.45
-134.98
-154.31
-166.15
-171.38
-169.36
-156.14
-128.67
-88.02
-43.81
-6.70
14.52
16.65
2.09
-22.01
-45.71
-62.25
-71.38
-80.85
-97.81
-124.83
-157.84
-188.71
-208.81
-211.83
-197.02
-169.04
-136.80
-107.41
-84.71
-69.13
-59.80
-55.56
-54.83
-55.85
-56.63
-55.93
-52.58
-46.44
-38.74
-32.11
-29.18
-31.31
-37.89
-46.59
-54.07
-56.47
-50.40
-34.12
-8.70
21.71
50.62
71.00
77.51
68.35
45.83
15.56
-15.47
-41.00
-57.03
-62.40
-58.31
-47.22
-31.74
-13.82
5.28
24.81
43.91
61.31
75.34
84.54
88.23
86.94
82.25
76.17
70.31
65.35
61.32
58.29
56.76
57.40
60.10
63.58
65.33
63.23
56.96
48.59
41.20
36.33
31.88
22.07
0.21
-37.35
-88.15
-143.54
-191.79
-222.98
-232.87
-223.74
-202.40
-176.55
-151.54
-129.01
-107.70
-85.13
-59.18
-29.00
4.40
38.26
68.74
92.17
106.34
111.15
108.12
99.57
87.32
72.61
56.80
41.96
30.70
25.06
25.01
28.29
31.93
34.74
38.87
49.19
70.57
104.64
148.21
194.22
234.26
260.83
268.73
255.51
221.69
171.09
111.02
51.64
3.50
-25.85
-34.69
-27.86
-14.59
-4.44
-3.49
-12.44
-27.55
-43.49
-56.16
-64.27
-68.89
-71.96
-74.71
-77.27
-79.29
-80.80
-82.56
-85.30
-88.56
-90.07
-86.34
-74.35
-53.19
-24.91
6.18
34.93
57.13
70.65
75.76
74.78
71.38
69.84
74.13
87.09
109.75
141.07
178.44
218.72
259.27
298.42
335.18
368.27
395.47
413.57
419.35
411.02
389.26
357.33
320.01
282.06
246.76
215.44
187.91
163.52
141.94
123.43
108.36
96.61
87.31
78.91
69.97
59.70
48.29
36.74
26.25
17.62
10.70
4.50
-2.41
-11.24
-22.39
-35.23
-48.39
-60.40
-70.44
-78.77
-86.79
-96.43
-109.45
-126.67
-147.73
-171.39
-196.19
-221.14
-246.14
-271.97
-299.91
-331.30
-367.35
-408.74
-455.06
-504.03
-551.25
-590.79
-616.81
-625.81
-617.99
-597.21
-569.18
-538.81
-508.34
-476.98
-442.33
-402.34
-356.92
-308.07
-258.98
-212.65
-170.81
-133.79
-100.79
-70.68
-42.57
-16.38
7.27
27.56
44.31
58.66
73.08
90.71
114.17
144.50
180.84
220.82
261.39
299.76
333.91
362.34
383.96
397.80
403.19
400.08
389.22
371.78
348.98
321.77
290.96
258.05
225.96
199.09
182.33
179.29
190.27
211.78
237.38
259.59
272.26
272.11
259.13
235.72
205.32
170.47
133.27
95.43
58.37
23.12
-9.93
-41.00
-70.72
-100.37
-133.59
-174.02
-224.26
-284.35
-350.82
-416.42
-471.13
-504.82
-510.41
-488.79
-445.60
-388.96
-326.92
-266.46
-213.75
-174.84
-155.60
-159.96
-191.01
-244.44
-308.28
-366.62
-405.72
-419.07
-408.62
-382.39
-331.53
-257.31
-168.44
-78.51
0.19
60.92
102.51
127.81
140.31
147.85
153.16
157.28
160.32
162.28
163.33
164.52
167.44
175.04
191.36
216.99
250.95
289.93
327.60
355.31
364.28
348.89
309.18
251.31
183.22
113.73
50.00
-4.04
-47.98
-83.85
-114.58
-142.34
-167.52
-189.48
-205.85
-213.26
-208.99
-192.37
-165.16
-130.45
-91.00
-48.08
-2.18
45.99
93.95
136.81
168.43
183.90
181.68
164.37
137.55
107.54
79.51
56.55
39.64
28.07
19.89
12.34
2.80
-9.92
-24.21
-35.64
-38.20
-26.84
0.39
41.79
93.58
152.29
216.14
284.19
353.90
419.26
471.11
500.18
501.36
476.35
433.38
383.74
337.30
299.26
269.68
245.46
223.32
201.92
182.07
165.60
153.76
146.25
141.52
137.69
133.51
128.95
125.05
123.20
124.31
128.29
134.04
139.89
144.27
146.22
145.68
143.24
139.64
135.32
130.16
123.58
114.88
103.62
89.96
74.60
58.58
42.84
27.85
13.49
-0.79
-15.61
-31.28
-47.57
-63.79
-79.05
-92.74
-104.89
-116.25
-128.03
-141.50
-157.37
-175.56
-195.14
-214.79
-233.39
-250.57
-266.93
-283.79
-302.48
-323.61
-346.61
-369.76
-390.94
-408.52
-422.26
-433.61
-445.28
-460.33
-480.99
-507.87
-539.44
-572.04
-600.43
-618.85
-622.45
-608.68
-578.04
-533.64
-479.91
-420.89
-359.21
-296.24
-233.37
-173.17
-119.58
-76.75
-46.78
-28.11
-15.58
-2.09
18.85
50.71
92.82
140.49
185.79
219.43
233.09
222.20
188.62
141.75
96.75
69.69
71.04
100.67
147.01
191.33
215.73
210.78
179.19
133.69
90.51
61.94
51.97
56.56
67.65
78.30
85.79
91.17
96.61
102.50
106.30
103.89
92.32
72.13
47.65
25.38
10.93
6.54
10.38
17.68
23.09
23.18
17.75
9.65
3.10
1.71
6.79
16.91
28.63
38.18
43.12
43.30
40.65
37.97
37.52
39.98
44.30
48.46
50.56
49.62
45.87
40.40
34.54
29.36
25.33
22.41
20.30
18.67
17.30
16.10
15.12
14.43
14.05
13.83
13.42
12.40
10.39
7.23
3.15
-1.33
-5.50
-8.65
-10.08
-9.38
-6.38
-1.39
4.81
11.14
16.41
19.75
20.96
20.44
19.01
17.46
16.26
15.44
14.80
14.16
13.56
13.20
13.24
13.62
14.09
14.22
13.74
12.54
10.73
8.60
6.45
4.46
2.72
1.14
-0.47
-2.37
-4.66
-7.44
-10.64
-14.14
-17.70
-20.95
-23.35
-24.33
-23.40
-20.32
-15.29
-8.91
-2.03
4.45
9.82
13.70
15.96
16.71
16.21
14.78
12.76
10.43
7.96
5.41
2.76
0.03
-2.68
-5.12
-7.00
-8.04
-8.15
-7.53
-6.57
-5.76
-5.42
-5.69
-6.49
-7.64
-9.06
-10.76
-12.83
-15.23
-17.69
-19.63
-20.34
-19.17
-15.78
-10.24
-3.05
5.04
13.22
20.77
27.14
32.01
35.17
36.59
36.33
34.64
31.92
28.72
25.57
22.92
20.95
19.47
17.98
15.79
12.32
7.41
1.48
-4.60
-9.76
-13.28
-14.98
-15.31
-15.16
-15.45
-16.77
-19.19
-22.24
-25.16
-27.11
-27.39
-25.63
-21.77
-16.09
-9.09
-1.42
6.21
13.01
18.26
21.36
22.07
20.59
17.60
14.04
10.76
8.24
6.52
5.30
4.16
2.80
1.11
-0.80
-2.74
-4.51
-5.92
-6.90
-7.51
-7.91
-8.33
-8.98
-9.95
-11.12
-12.28
-13.16
-13.49
-13.06
-11.69
-9.34
-6.10
-2.25
1.86
6.02
10.22
14.63
19.40
24.43
29.19
32.93
34.90
34.67
32.27
28.29
23.56
18.98
15.24
12.64
11.09
10.10
9.07
7.57
5.52
3.25
1.27
-0.05
-0.69
-1.09
-1.87
-3.49
-5.95
-8.73
-10.92
-11.65
-10.35
-6.97
-1.89
4.22
10.63
16.70
21.87
25.73
27.98
28.45
27.19
24.48
20.80
16.76
12.90
9.62
7.09
5.24
3.88
2.71
1.54
0.30
-0.92
-1.93
-2.64
-3.04
-3.28
-3.51
-3.94
-4.70
-5.80
-7.14
-8.40
-9.08
-8.60
-6.53
-2.75
2.44
8.46
14.67
20.57
25.90
30.46
33.99
36.10
36.32
34.38
30.45
25.14
19.34
13.86
9.21
5.45
2.39
-0.22
-2.45
-4.28
-5.62
-6.58
-7.43
-8.52
-10.10
-12.16
-14.45
-16.69
-18.66
-20.28
-21.48
-22.00
-21.43
-19.38
-15.70
-10.63
-4.72
1.45
7.40
12.87
17.67
21.64
24.48
26.03
26.27
25.47
24.03
22.31
20.45
18.36
15.92
13.07
9.96
6.84
4.01
1.65
-0.10
-1.30
-2.13
-2.86
-3.88
-5.56
-8.12
-11.48
-15.21
-18.68
-21.18
-22.16
-21.47
-19.35
-16.35
-13.10
-10.09
-7.52
-5.32
-3.15
-0.68
2.22
5.43
8.54
10.98
12.20
11.82
9.77
6.35
2.02
-2.50
-6.56
-9.63
-11.51
-12.39
-12.75
-13.16
-14.01
-15.43
-17.16
-18.79
-19.99
-20.67
-21.07
-21.65
-22.91
-25.17
-28.51
-32.66
-37.06
-40.95
-43.45
-43.79
-41.58
-36.94
-30.44
-23.02
-15.47
-8.31
-1.76
4.18
9.32
13.29
15.63
16.11
14.94
12.92
10.97
9.81
9.63
10.02
10.26
9.81
8.56
6.84
5.36
4.75
5.22
6.65
8.44
9.84
10.21
9.23
6.99
3.90
0.42
-3.10
-6.42
-9.47
-11.95
-13.40
-13.14
-10.66
-5.80
0.97
8.74
16.41
23.01
28.04
31.37
33.17
33.72
33.24
31.86
29.73
27.08
24.22
21.54
19.35
17.73
16.59
15.66
14.70
13.61
12.49
11.49
10.71
10.00
8.99
7.35
4.86
1.67
-1.86
-5.34
-8.55
-11.43
-14.07
-16.39
-18.11
-18.76
-17.88
-15.21
-10.81
-5.02
1.70
8.84
15.90
22.36
27.71
31.48
33.34
33.25
31.45
28.43
24.76
21.00
17.58
14.76
12.64
11.17
10.13
9.22
8.14
6.68
4.83
2.75
0.66
-1.19
-2.69
-3.84
-4.68
-5.34
-6.02
-7.00
-8.57
-10.92
-14.02
-17.48
-20.60
-22.60
-22.81
-20.98
-17.30
-12.40
-7.00
-1.87
2.54
6.08
8.91
11.31
13.55
15.62
17.24
17.97
17.48
15.76
13.26
10.72
8.88
8.15
8.42
9.14
9.64
9.44
8.45
6.94
5.39
4.20
3.56
3.37
3.34
3.13
2.43
1.00
-1.28
-4.45
-8.45
-13.11
-18.10
-22.91
-26.84
-29.18
-29.41
-27.34
-23.23
-17.72
-11.58
-5.47
0.16
5.13
9.32
12.64
14.92
15.99
15.84
14.68
12.92
11.12
9.80
9.26
9.56
10.39
11.27
11.68
11.30
10.13
8.45
6.63
4.93
3.37
1.77
-0.01
-2.00
-4.01
-5.80
-7.32
-8.80
-10.73
-13.59
-17.61
-22.56
-27.73
-32.21
-35.13
-35.93
-34.60
-31.47
-27.11
-22.02
-16.49
-10.62
-4.57
1.34
6.59
10.64
13.15
14.18
14.00
13.02
11.57
9.77
7.72
5.56
3.54
1.88
0.72
-0.01
-0.50
-1.00
-1.67
-2.57
-3.72
-5.15
-6.86
-8.80
-10.82
-12.68
-14.22
-15.45
-16.62
-18.02
-19.96
-22.48
-25.43
-28.44
-30.95
-32.35
-32.13
-30.02
-26.10
-20.81
-14.76
-8.54
-2.54
3.13
8.45
13.43
17.90
21.49
23.82
24.70
24.22
22.77
20.91
19.21
18.02
17.54
17.75
18.52
19.77
21.41
23.42
25.72
28.11
30.28
31.90
32.75
32.81
32.14
30.86
28.99
26.45
23.14
18.99
13.99
8.15
1.57
-5.53
-12.68
-19.19
-24.21
-27.05
-27.40
-25.43
-21.72
-16.99
-11.82
-6.60
-1.55
3.15
7.16
10.13
11.71
11.82
10.67
8.75
6.68
5.00
4.07
3.96
4.54
5.58
6.77
7.87
8.70
9.16
9.35
9.44
9.61
9.98
10.44
10.74
10.53
9.51
7.58
4.81
1.36
-2.54
-6.68
-10.76
-14.39
-17.01
-18.09
-17.22
-14.36
-9.79
-4.09
2.12
8.33
14.19
19.50
24.05
27.51
29.59
30.04
28.83
26.24
22.80
19.13
15.79
13.15
11.34
10.28
9.74
9.37
8.86
7.96
6.53
4.61
2.35
0.05
-2.09
-3.93
-5.56
-7.15
-8.91
-11.04
-13.54
-16.34
-19.26
-22.24
-25.23
-28.17
-30.76
-32.52
-32.77
-30.93
-26.84
-20.77
-13.43
-5.72
1.51
7.63
12.29
15.38
17.02
17.42
16.91
15.85
14.60
13.41
12.38
11.55
10.84
10.20
9.60
8.97
8.25
7.36
6.28
5.05
3.81
2.76
2.07
1.74
1.60
1.35
0.63
-0.77
-2.83
-5.35
-8.05
-10.76
-13.46
-16.22
-18.96
-21.27
-22.50
-21.96
-19.26
-14.55
-8.41
-1.73
4.63
10.12
14.41
17.42
19.14
19.64
19.03
17.52
15.51
13.43
11.75
10.73
10.44
10.62
10.90
10.88
10.40
9.57
8.73
8.16
7.89
7.63
6.98
5.72
3.95
2.05
0.43
-0.73
-1.57
-2.48
-3.84
-5.85
-8.52
-11.67
-15.00
-18.05
-20.27
-21.03
-19.83
-16.57
-11.63
-5.81
0.00
5.11
9.21
12.29
14.49
15.82
16.23
15.62
14.06
11.81
9.20
6.55
4.09
1.94
0.19
-1.10
-1.91
-2.38
-2.67
-2.98
-3.37
-3.74
-3.94
-3.87
-3.68
-3.73
-4.33
-5.65
-7.53
-9.58
-11.49
-13.17
-14.78
-16.57
-18.71
-21.14
-23.62
-25.83
-27.46
-28.21
-27.80
-25.98
-22.70
-18.19
-12.95
-7.65
-2.84
1.12
4.19
6.44
7.96
8.78
8.78
7.90
6.13
3.64
0.72
-2.21
-4.75
-6.56
-7.58
-7.98
-8.09
-8.23
-8.54
-8.91
-9.14
-9.12
-8.91
-8.81
-9.16
-10.18
-11.85
-13.90
-15.85
-17.23
-17.81
-17.59
-16.83
-15.89
-15.04
-14.44
-14.11
-13.93
-13.83
-13.69
-13.35
-12.59
-11.07
-8.53
-4.77
0.23
6.30
13.09
20.12
26.79
32.49
36.69
39.16
39.92
39.31
37.78
35.70
33.35
30.92
28.49
26.24
24.27
22.65
21.31
20.07
18.78
17.33
15.80
14.27
12.80
11.36
9.89
8.29
6.56
4.70
2.75
0.64
-1.69
-4.29
-7.11
-9.98
-12.68
-14.97
-16.72
-17.73
-17.84
-16.84
-14.57
-11.01
-6.39
-1.16
4.12
8.97
13.04
16.19
18.37
19.60
19.90
19.37
18.25
16.90
15.74
15.08
15.04
15.44
15.97
16.31
16.32
16.06
15.70
15.43
15.26
15.08
14.61
13.56
11.81
9.39
6.51
3.39
0.23
-2.97
-6.34
-10.02
-14.01
-18.09
-21.85
-24.87
-26.89
-27.85
-27.81
-26.81
-24.82
-21.68
-17.31
-11.84
-5.62
0.76
6.77
11.94
16.01
18.91
20.62
21.25
21.02
20.33
19.63
19.27
19.32
19.45
19.05
17.42
14.24
9.71
4.62
-0.05
-3.56
-5.81
-7.34
-8.99
-11.37
-14.43
-17.59
-20.04
-21.39
-21.87
-22.33
-23.71
-26.53
-30.65
-35.28
-39.29
-41.48
-40.97
-37.33
-30.73
-21.99
-12.34
-3.17
4.43
9.98
13.71
16.38
18.86
21.68
24.60
26.60
26.03
21.29
11.62
-2.21
-17.80
-31.71
-40.65
-42.74
-38.25
-29.39
-19.36
-10.97
-5.71
-3.49
-3.13
-3.32
-3.23
-2.85
-2.68
-3.16
-4.29
-5.59
-6.49
-6.71
-6.49
-6.40
-6.93
-8.06
-9.11
-8.99
-6.75
-2.03
4.77
12.61
20.28
26.81
31.74
35.18
37.56
39.34
40.76
41.73
41.80
40.44
37.36
32.66
26.93
21.01
15.70
11.58
8.83
7.33
6.71
6.52
6.29
5.60
4.16
1.86
-1.13
-4.44
-7.67
-10.50
-12.80
-14.63
-16.11
-17.31
-18.37
-19.54
-21.28
-24.11
-28.38
-33.90
-39.81
-44.68
-46.90
-45.22
-39.24
-29.64
-17.98
-6.21
3.86
11.11
15.42
17.61
19.05
21.10
24.49
28.94
33.21
35.53
34.55
30.02
23.15
16.25
11.77
11.19
14.26
18.98
22.37
21.70
15.56
4.38
-9.54
-22.77
-31.90
-34.50
-29.90
-19.37
-5.83
6.85
14.24
12.09
-2.97
-32.02
-72.67
-119.26
-164.64
-203.16
-233.03
-256.39
-276.60
-294.73
-307.52
-308.71
-293.17
-261.09
-219.30
-178.57
-148.23
-131.67
-125.54
-122.76
-117.56
-109.03
-101.00
-98.70
-104.80
-116.88
-128.11
-130.60
-119.30
-94.26
-60.42
-24.70
7.39
34.13
58.00
83.89
116.53
158.23
207.65
259.97
308.32
345.77
367.33
371.34
359.91
338.05
311.93
286.94
266.21
250.39
238.42
228.81
220.72
214.21
209.76
207.46
206.56
205.62
203.19
198.61
192.35
186.00
181.33
179.51
180.48
183.09
185.66
186.76
185.67
182.45
177.55
171.34
163.87
155.06
144.92
133.77
122.12
110.42
98.77
86.98
74.84
62.55
50.86
40.82
33.15
27.84
23.99
20.24
15.41
8.77
0.08
-10.88
-24.43
-40.78
-59.67
-80.15
-100.73
-119.91
-136.71
-151.05
-163.55
-175.14
-186.60
-198.49
-211.17
-224.84
-239.34
-253.73
-266.15
-274.09
-275.32
-268.85
-255.59
-238.07
-219.68
-203.63
-192.14
-185.90
-183.86
-183.32
-180.32
-170.67
-151.22
-121.23
-83.00
-41.35
-2.16
29.69
51.77
64.41
69.98
71.51
71.72
72.49
75.21
81.05
91.14
106.09
125.47
147.19
167.69
182.65
188.43
183.50
169.17
149.07
127.66
108.46
92.96
80.58
69.71
58.95
48.10
38.03
30.13
25.44
24.20
25.88
29.42
33.56
36.99
38.59
37.65
34.18
29.07
23.78
19.81
18.01
18.43
20.55
23.96
28.83
35.70
44.77
55.01
64.01
68.67
66.51
56.70
40.05
18.17
-7.52
-36.43
-68.25
-101.92
-134.73
-162.46
-180.88
-187.60
-183.36
-171.82
-157.94
-145.74
-136.45
-128.21
-117.23
-100.06
-75.59
-46.02
-16.28
7.76
21.42
22.51
11.53
-9.11
-36.21
-66.64
-97.58
-126.54
-151.29
-169.89
-181.30
-185.57
-183.87
-177.90
-168.98
-157.54
-142.98
-124.21
-100.57
-72.44
-41.32
-9.46
20.86
47.98
70.89
88.77
100.77
105.72
102.85
92.44
76.34
57.69
40.08
26.51
18.50
16.01
17.65
21.44
25.44
28.30
29.69
30.18
31.00
33.37
37.62
42.56
45.56
43.44
34.10
17.65
-3.19
-23.94
-39.87
-47.40
-44.96
-32.91
-13.01
12.12
39.35
64.99
85.07
95.80
94.64
81.30
58.06
29.20
-0.62
-28.02
-52.14
-74.47
-97.67
-123.75
-152.64
-181.94
-207.82
-226.76
-237.05
-239.54
-237.15
-233.49
-231.36
-231.76
-233.76
-235.27
-234.21
-229.31
-220.42
-208.05
-192.69
-174.21
-151.89
-125.17
-94.35
-61.32
-29.10
-1.01
20.74
35.93
46.51
55.76
66.96
82.04
101.07
122.60
144.67
165.83
185.48
203.73
220.53
235.12
245.83
250.52
247.51
236.34
218.30
196.25
173.72
153.79
138.13
126.72
118.34
111.67
106.05
101.75
99.43
99.21
100.17
100.49
98.44
93.43
86.56
80.04
76.08
75.56
77.41
78.99
77.21
69.95
56.83
39.22
19.35
-0.84
-20.44
-39.51
-58.14
-75.52
-89.53
-97.46
-97.50
-90.05
-77.92
-65.30
-55.82
-50.82
-48.90
-46.85
-41.51
-31.41
-17.31
-1.59
13.07
24.71
32.46
36.11
35.77
31.73
24.95
17.26
11.29
9.44
12.81
20.34
29.12
35.58
37.07
32.94
24.43
13.78
2.96
-7.09
-16.44
-25.62
-35.04
-44.83
-54.86
-64.81
-74.00
-81.05
-83.90
-80.46
-69.57
-51.95
-30.41
-8.93
8.62
19.69
23.53
20.68
12.36
-0.17
-15.55
-32.11
-47.86
-60.89
-70.03
-75.34
-77.96
-79.48
-81.12
-83.26
-85.52
-87.19
-87.80
-87.26
-85.74
-83.35
-79.90
-74.87
-67.91
-59.16
-49.52
-40.47
-33.53
-29.47
-28.05
-28.08
-27.87
-25.88
-20.97
-12.49
-0.26
15.40
33.61
52.91
71.70
88.52
102.51
113.47
121.68
127.54
131.43
133.78
135.06
135.89
136.77
137.85
138.99
139.86
140.28
140.25
139.69
138.27
135.39
130.65
124.30
117.56
112.17
109.56
110.12
112.93
116.31
118.64
119.14
117.86
115.22
111.43
106.45
100.51
94.66
90.65
89.97
92.39
95.33
94.57
86.23
69.05
45.28
19.89
-1.95
-17.42
-27.33
-35.22
-45.01
-58.57
-74.94
-91.26
-104.92
-115.02
-122.60
-129.32
-135.83
-140.91
-142.23
-138.04
-128.68
-116.96
-106.77
-101.17
-100.69
-103.38
-106.10
-106.17
-102.59
-95.96
-87.62
-78.72
-69.60
-59.77
-48.39
-34.75
-18.54
-0.06
19.74
39.24
56.39
69.05
75.74
76.25
71.83
64.82
57.67
51.87
47.32
42.56
35.60
25.13
11.37
-3.92
-18.03
-28.40
-33.58
-33.74
-30.58
-26.67
-24.62
-26.26
-32.27
-42.23
-54.92
-68.55
-81.17
-90.79
-95.67
-94.50
-86.72
-72.73
-53.73
-31.32
-7.08
17.79
42.41
65.77
86.35
102.18
111.41
113.33
108.94
100.78
91.98
84.80
79.52
74.26
65.81
51.09
28.47
-1.81
-38.12
-78.34
-120.63
-163.65
-206.26
-247.04
-284.26
-316.22
-341.89
-361.15
-374.61
-383.03
-386.74
-385.46
-378.70
-366.48
-349.77
-330.56
-311.34
-294.31
-280.84
-271.20
-264.64
-259.70
-254.59
-247.39
-236.45
-220.68
-199.76
-174.17
-145.00
-113.43
-80.23
-45.56
-8.79
31.28
76.19
127.23
184.57
246.58
309.54
368.17
417.07
452.45
473.33
481.72
481.51
476.77
470.20
462.53
452.90
439.79
422.03
399.19
371.61
340.03
305.37
268.66
231.31
195.11
162.15
134.31
112.41
95.81
82.36
69.19
53.84
35.16
13.85
-7.98
-27.54
-42.13
-49.84
-49.83
-42.49
-29.31
-12.74
4.25
18.66
28.20
31.67
29.06
21.38
10.08
-3.55
-18.57
-34.43
-50.68
-66.67
-81.50
-94.21
-104.23
-111.80
-117.96
-124.26
-131.88
-140.99
-150.61
-158.91
-164.08
-165.00
-161.77
-155.57
-148.23
-141.44
-136.25
-132.80
-130.51
-128.43
-125.63
-121.43
-115.33
-106.88
-95.69
-81.40
-63.89
-43.44
-20.79
3.01
26.72
48.90
68.04
82.62
91.54
94.50
92.43
87.26
81.38
76.79
74.43
74.04
74.56
74.87
74.27
72.56
69.71
65.48
59.57
51.90
43.17
34.74
28.04
23.70
20.96
17.97
12.95
5.39
-3.27
-10.18
-12.50
-8.98
-0.59
10.04
20.10
28.10
34.35
40.34
47.45
55.69
63.58
68.86
69.83
66.34
59.96
53.19
48.23
46.09
46.38
47.78
48.86
48.68
46.97
43.99
40.27
36.56
33.75
32.84
34.58
39.05
45.28
51.58
56.18
58.15
57.96
57.29
58.20
62.12
69.35
79.37
91.43
105.07
119.88
134.67
146.75
152.05
146.54
128.24
98.63
62.41
25.49
-7.89
-37.03
-64.56
-94.10
-127.18
-161.59
-192.06
-213.06
-221.62
-218.91
-209.35
-198.15
-188.92
-182.74
-179.02
-177.08
-177.25
-180.45
-187.02
-195.24
-201.19
-200.11
-188.64
-166.54
-137.02
-105.42
-76.82
-53.93
-36.45
-21.94
-7.75
7.22
21.92
33.91
40.99
42.66
40.57
37.69
36.81
39.13
44.16
50.55
57.28
64.59
73.70
85.71
100.42
115.83
128.75
136.25
136.95
131.58
122.58
112.99
105.34
100.98
99.94
101.04
102.34
101.71
97.48
88.95
76.49
61.20
44.23
26.45
8.44
-8.90
-23.91
-34.32
-38.12
-34.60
-25.14
-12.87
-1.51
6.04
8.56
6.54
1.46
-4.93
-11.21
-16.32
-19.72
-21.33
-21.66
-21.71
-22.65
-25.29
-29.69
-34.96
-39.69
-42.56
-42.91
-41.13
-38.64
-37.43
-39.42
-45.57
-55.16
-65.52
-72.60
-72.31
-62.07
-41.87
-14.12
17.42
49.26
79.31
106.91
132.18
155.13
175.40
192.44
206.03
216.32
223.53
227.31
226.35
218.83
203.12
178.62
146.05
107.29
64.83
21.28
-21.13
-60.64
-96.27
-127.99
-156.91
-185.03
-215.04
-249.77
-291.46
-340.85
-396.00
-451.77
-500.43
-533.72
-545.52
-534.22
-503.30
-459.84
-411.58
-364.33
-320.63
-280.37
-242.51
-206.55
-172.87
-141.98
-113.56
-85.90
-56.52
-23.28
14.58
56.39
100.47
144.90
188.02
228.42
264.91
296.63
323.31
345.37
363.45
377.54
386.30
387.30
378.27
358.98
332.25
303.37
277.91
259.17
246.90
237.92
228.10
214.31
195.36
171.65
144.31
114.81
84.70
55.94
30.70
10.74
-3.40
-12.73
-19.39
-25.75
-33.48
-43.12
-54.21
-65.82
-77.08
-87.44
-96.71
-105.05
-112.59
-119.26
-124.60
-127.86
-128.41
-126.16
-121.73
-116.07
-109.95
-103.48
-96.03
-86.62
-74.45
-59.30
-41.69
-22.68
-3.62
14.01
28.82
39.74
46.31
48.93
48.95
48.41
49.63
54.56
64.08
77.42
91.78
102.41
103.42
89.48
58.10
11.81
-41.43
-89.91
-121.92
-129.99
-113.69
-79.43
-37.50
1.97
32.31
51.30
60.02
60.61
54.50
42.01
23.08
-1.71
-30.65
-61.36
-91.60
-119.88
-145.45
-167.65
-185.19
-195.93
-197.45
-188.33
-169.29
-143.44
-115.48
-89.92
-69.49
-54.44
-43.12
-33.37
-23.86
-14.42
-5.55
2.49
10.12
18.46
28.36
39.71
51.62
62.75
72.49
81.49
91.77
105.69
124.52
147.11
169.63
186.96
194.77
191.51
178.89
160.73
140.75
120.68
99.66
75.71
47.43
15.73
-16.08
-43.71
-63.77
-74.93
-77.64
-73.02
-61.87
-44.89
-23.70
-1.34
17.66
28.85
29.76
21.12
6.67
-8.80
-22.24
-33.93
-47.11
-65.36
-89.33
-115.03
-134.15
-136.72
-114.70
-64.88
9.74
100.69
195.89
282.96
351.31
394.71
412.12
407.20
386.59
357.53
326.10
296.10
269.00
243.22
216.04
184.09
143.51
90.93
25.02
-50.95
-128.08
-193.53
-237.53
-255.52
-250.96
-234.35
-219.07
-216.67
-232.64
-265.58
-309.43
-360.49
-414.82
-467.14
-510.21
-535.97
-539.98
-523.44
-492.93
-457.48
-428.73
-412.08
-405.35
-401.93
-395.77
-386.72
-379.34
-378.38
-354.79
-289.05
-177.16
-35.77
107.36
227.37
308.19
345.00
343.38
315.62
272.04
222.18
173.03
125.26
82.57
47.35
20.29
0.66
-14.28
-30.69
-52.52
-79.19
-104.28
-117.59
-111.15
-81.56
-25.00
54.39
147.28
243.42
328.01
387.28
413.64
407.77
379.06
342.29
311.46
294.86
293.26
300.72
308.89
310.38
299.66
273.90
233.24
180.24
120.59
62.20
12.81
-22.06
-41.66
-50.81
-57.14
-67.81
-86.15
-109.75
-131.69
-143.64
-138.84
-114.87
-75.74
-31.32
5.35
22.49
14.27
-17.09
-62.09
-107.10
-139.50
-151.96
-144.10
-120.87
-89.35
-54.88
-19.17
17.86
56.39
96.10
136.05
175.16
212.61
247.34
276.84
296.34
300.15
284.81
252.15
210.02
169.82
141.31
127.36
122.61
116.65
100.65
73.62
44.15
26.35
32.25
65.18
117.77
175.72
224.45
255.20
267.38
266.21
258.14
247.22
234.10
217.50
197.03
174.42
153.16
136.59
125.87
119.14
112.35
101.42
84.54
63.23
41.44
23.11
9.56
-2.30
-18.84
-46.58
-87.01
-134.90
-178.86
-206.19
-209.02
-188.32
-153.79
-119.17
-96.13
-88.43
-91.89
-97.32
-95.93
-83.89
-63.83
-43.06
-29.67
-30.06
-45.33
-73.76
-110.85
-150.08
-183.47
-202.87
-202.17
-179.99
-142.94
-99.00
-60.42
-37.22
-34.27
-50.75
-82.13
-122.85
-167.81
-215.88
-257.13
-285.41
-295.76
-287.20
-264.31
-236.44
-214.51
-207.32
-224.68
-258.03
-302.44
-352.20
-402.50
-449.52
-489.58
-518.59
-533.35
-540.04
-530.34
-507.24
-474.72
-435.97
-391.76
-340.85
-282.26
-169.61
-76.07
-2.27
41.89
51.33
28.64
-15.59
-65.22
-103.40
-119.75
-118.69
-94.08
-52.59
-2.29
49.14
95.83
134.21
162.85
179.22
176.32
162.34
140.46
114.40
87.18
60.69
35.98
30.61
54.48
102.20
164.45
224.27
271.15
303.52
325.09
340.05
349.85
351.00
336.21
304.55
258.46
205.57
156.96
123.69
112.89
127.59
161.62
203.16
241.28
267.81
275.32
260.78
228.40
187.51
146.75
108.81
73.07
38.97
7.87
-17.92
-36.05
-45.68
-48.33
-47.35
-47.07
-50.20
-57.07
-65.93
-74.49
-80.37
-82.27
-80.53
-76.72
-72.94
-70.27
-69.07
-67.77
-64.94
-59.52
-51.31
-41.14
-30.62
-21.37
-14.08
-8.79
-4.49
-0.36
4.21
9.35
14.68
19.55
23.35
26.31
28.86
32.40
37.93
46.06
56.89
70.32
86.62
102.92
118.08
131.43
143.58
154.84
165.01
173.33
178.88
181.00
179.40
174.73
160.85
135.48
99.85
58.55
17.00
-20.82
-53.25
-80.48
-103.37
-123.21
-140.25
-154.94
-167.36
-177.93
-187.12
-195.12
-201.84
-206.72
-209.34
-209.20
-205.94
-198.49
-186.61
-170.52
-150.69
-127.82
-102.84
-77.13
-52.11
-29.59
-9.56
8.04
23.84
38.84
54.24
71.30
91.01
114.49
138.30
162.91
189.50
219.79
255.18
296.12
342.20
392.53
446.62
492.95
523.15
530.47
511.04
463.67
390.09
295.72
189.81
84.32
-9.04
-80.11
-125.42
-147.75
-153.92
-152.49
-149.79
-150.12
-156.66
-172.38
-198.13
-233.16
-271.25
-303.33
-319.65
-313.07
-282.87
-235.63
-182.99
-136.06
-102.06
-82.03
-72.44
-67.93
-64.38
-60.56
-57.45
-56.55
-57.82
-59.90
-60.83
-59.72
-56.98
-54.03
-52.71
-54.16
-58.35
-64.03
-69.28
-72.43
-72.77
-70.61
-66.99
-62.92
-59.08
-55.49
-51.71
-47.17
-41.65
-35.63
-30.18
-26.37
-25.17
-27.01
-31.64
-38.30
-46.00
-53.89
-61.53
-68.93
-76.07
-83.09
-90.08
-96.94
-103.38
-109.09
-113.91
-117.88
-121.32
-124.26
-126.81
-128.91
-130.25
-130.23
-128.00
-122.55
-112.84
-100.77
-87.34
-73.36
-59.32
-45.26
-30.85
-15.57
1.07
19.21
38.51
58.81
79.65
100.67
121.70
142.79
164.21
186.46
210.23
236.16
264.67
294.72
323.45
346.42
358.73
356.57
338.62
306.43
263.82
215.85
167.20
121.74
82.46
51.73
31.16
21.07
20.04
25.07
32.51
39.20
43.47
45.29
45.69
46.04
47.11
49.03
51.40
53.63
55.06
55.09
53.19
49.25
43.80
38.00
33.28
30.76
30.78
32.76
35.67
38.42
40.31
41.11
40.79
39.35
36.71
32.76
27.50
21.20
14.20
6.87
-0.47
-7.73
-14.83
-21.70
-28.26
-34.37
-39.87
-44.58
-48.05
-49.74
-49.16
-46.26
-41.72
-36.92
-33.47
-32.57
-34.44
-38.23
-42.48
-45.82
-47.57
-47.81
-47.03
-45.49
-42.95
-38.80
-32.61
-24.67
-16.16
-8.69
-3.72
-1.94
-2.98
-5.76
-8.99
-11.71
-13.55
-14.62
-15.19
-15.44
-15.36
-14.81
-13.72
-12.26
-10.76
-9.58
-9.07
-9.36
-10.44
-12.12
-14.14
-16.24
-18.25
-20.17
-22.11
-24.33
-26.97
-29.98
-33.07
-35.71
-37.33
-37.50
-36.03
-33.01
-28.85
-24.06
-19.27
-14.91
-11.11
-7.63
-3.92
0.70
6.63
13.73
21.21
27.81
32.18
33.44
31.46
26.90
20.96
14.91
9.61
5.37
1.94
-1.22
-4.71
-8.99
-14.27
-20.45
-27.10
-33.51
-38.82
-42.42
-44.23
-44.84
-45.49
-47.40
-51.34
-57.20
-64.09
-70.84
-76.62
-81.28
-85.23
-89.16
-93.46
-98.00
-102.25
-105.34
-106.23
-103.85
-97.22
-85.71
-69.52
-49.81
-28.71
-8.65
8.42
21.80
32.17
41.17
50.55
61.35
73.62
86.49
98.76
109.30
117.23
121.93
122.96
120.30
114.57
107.21
100.24
95.66
94.66
97.21
102.08
107.51
111.96
114.69
115.73
115.30
113.02
107.42
96.25
77.37
50.08
15.93
-21.36
-56.92
-86.28
-106.51
-116.66
-117.30
-109.81
-95.64
-76.21
-53.06
-27.98
-3.02
19.89
39.22
54.03
63.87
68.50
67.69
61.23
49.24
32.47
12.46
-8.53
-27.82
-43.01
-52.40
-55.46
-52.82
-45.93
-36.67
-26.79
-17.69
-10.23
-4.75
-1.17
0.89
1.98
2.64
3.30
4.17
5.31
6.57
7.66
8.28
8.24
7.58
6.56
5.65
5.27
5.64
6.67
7.94
8.83
8.55
6.40
1.84
-5.42
-15.42
-27.85
-42.24
-58.02
-74.48
-90.75
-105.61
-117.68
-125.65
-128.59
-126.12
-118.45
-106.28
-90.65
-72.73
-53.76
-35.04
-17.77
-2.83
9.71
20.63
31.29
43.08
56.75
72.32
88.78
104.41
117.25
126.09
130.66
131.54
129.69
126.06
121.73
117.16
112.19
106.07
98.74
90.89
83.67
78.14
74.93
74.71
77.15
80.86
83.30
82.83
78.90
72.20
64.45
58.14
56.74
62.13
73.24
85.18
92.03
88.27
70.40
38.17
-10.29
-69.85
-129.89
-173.17
-192.59
-188.21
-165.57
-131.96
-95.14
-61.49
-34.09
-13.80
-0.24
6.61
7.77
4.64
-1.07
-7.83
-14.21
-18.55
-20.31
-20.24
-20.73
-23.54
-29.41
-37.85
-47.45
-56.23
-61.89
-63.24
-60.57
-55.88
-51.12
-47.62
-45.65
-44.60
-43.27
-40.23
-34.60
-26.38
-16.56
-6.39
2.96
10.64
16.22
19.82
21.88
22.78
22.60
21.12
18.25
14.29
9.94
6.06
3.16
1.19
-0.51
-2.80
-6.34
-11.09
-16.47
-21.59
-25.70
-28.54
-30.37
-31.74
-33.14
-34.74
-36.25
-37.11
-36.79
-34.99
-31.82
-27.72
-23.31
-19.14
-15.67
-13.11
-11.50
-10.72
-10.55
-10.60
-10.51
-9.97
-8.90
-7.48
-6.08
-5.05
-4.50
-4.22
-3.79
-2.79
-1.11
0.89
2.58
3.33
2.81
1.22
-0.91
-2.98
-4.49
-5.24
-5.19
-4.42
-2.97
-0.94
1.51
4.13
6.64
8.84
10.59
11.82
12.39
12.10
10.80
8.46
5.36
1.94
-1.30
-4.06
-6.24
-7.92
-9.21
-10.10
-10.54
-10.52
-10.14
-9.61
-9.18
-8.97
-9.01
-9.33
-10.00
-11.19
-13.02
-15.36
-17.76
-19.54
-20.08
-19.09
-16.71
-13.38
-9.53
-5.35
-0.75
4.44
10.24
16.35
22.23
27.32
31.25
33.89
35.28
35.43
34.28
31.71
27.75
22.78
17.50
12.76
9.27
7.29
6.53
6.24
5.51
3.59
0.13
-4.72
-10.37
-16.02
-20.96
-24.66
-26.93
-27.87
-27.78
-27.12
-26.31
-25.74
-25.57
-25.74
-26.00
-26.08
-25.75
-24.94
-23.67
-21.89
-19.45
-16.24
-12.37
-8.20
-4.41
-1.68
-0.33
-0.21
-0.73
-1.17
-1.03
-0.21
1.04
2.32
3.31
3.93
4.29
4.56
4.85
5.14
5.25
5.07
4.61
4.00
3.55
3.47
3.88
4.64
5.47
5.98
5.91
5.11
3.64
1.74
-0.26
-1.98
-3.09
-3.37
-2.73
-1.26
0.81
3.18
5.61
7.84
9.76
11.27
12.33
12.93
13.11
12.94
12.58
12.19
11.88
11.71
11.61
11.46
11.15
10.68
10.19
9.87
9.94
10.40
11.15
12.00
12.78
13.44
14.02
14.57
15.13
15.63
15.97
16.08
15.97
15.70
15.36
15.00
14.64
14.36
14.26
14.49
15.15
16.23
17.61
19.17
20.79
22.47
24.33
26.53
29.29
32.81
37.22
42.46
48.34
54.42
60.09
64.61
67.16
67.05
63.83
57.47
48.51
38.05
27.52
18.28
11.34
6.98
4.83
3.98
3.49
2.57
0.78
-2.02
-5.94
-11.14
-17.95
-26.66
-37.34
-49.66
-62.85
-75.80
-87.25
-95.84
-100.31
-99.63
-93.27
-81.79
-66.87
-51.22
-37.86
-29.17
-26.07
-27.73
-31.95
-36.08
-38.00
-36.84
-33.02
-27.86
-22.75
-18.73
-16.04
-14.40
-13.18
-11.86
-10.18
-8.19
-6.13
-4.28
-2.76
-1.63
-0.86
-0.44
-0.40
-0.77
-1.59
-2.81
-4.23
-5.56
-6.49
-6.84
-6.69
-6.41
-6.51
-7.34
-8.87
-10.63
-11.86
-11.84
-10.22
-7.16
-3.27
0.59
3.73
5.73
6.62
6.69
6.34
5.93
5.67
5.53
5.42
5.18
4.77
4.27
3.88
3.75
3.92
4.27
4.64
5.00
5.50
6.27
7.34
8.44
9.11
9.00
8.01
6.42
4.65
3.06
1.71
0.38
-1.18
-3.05
-5.05
-6.83
-8.11
-8.81
-9.05
-8.99
-8.63
-7.87
-6.57
-4.73
-2.54
-0.35
1.54
2.96
4.06
5.14
6.49
8.17
9.96
11.39
12.04
11.69
10.54
9.05
7.81
7.16
7.11
7.35
7.47
7.25
6.76
6.25
6.02
6.10
6.22
6.00
5.19
3.82
2.23
0.82
-0.18
-0.82
-1.36
-2.04
-2.91
-3.87
-4.80
-5.71
-6.69
-7.89
-9.22
-10.37
-10.92
-10.51
-9.10
-6.97
-4.57
-2.32
-0.39
1.32
3.05
5.00
7.15
9.20
10.68
11.24
10.72
9.40
7.77
6.36
5.49
5.19
5.30
5.54
5.75
5.87
5.90
5.80
5.51
4.95
4.13
3.15
2.17
1.39
0.88
0.59
0.34
-0.06
-0.72
-1.60
-2.58
-3.56
-4.56
-5.69
-7.09
-8.74
-10.33
-11.39
-11.41
-10.14
-7.71
-4.57
-1.30
1.58
3.78
5.27
6.18
6.69
7.02
7.26
7.48
7.65
7.70
7.64
7.43
7.08
6.69
6.35
6.15
6.23
6.61
7.27
8.12
8.95
9.51
9.57
9.00
7.80
6.15
4.32
2.57
1.09
-0.09
-1.05
-1.91
-2.77
-3.69
-4.66
-5.66
-6.69
-7.64
-8.41
-8.86
-8.85
-8.39
-7.61
-6.66
-5.65
-4.55
-3.20
-1.53
0.41
2.44
4.24
5.60
6.41
6.69
6.57
6.15
5.46
4.52
3.41
2.19
1.03
0.08
-0.53
-0.75
-0.59
-0.11
0.54
1.23
1.77
2.06
2.02
1.67
1.11
0.51
0.06
-0.14
-0.08
0.08
0.11
-0.21
-1.02
-2.31
-3.98
-5.83
-7.62
-9.08
-10.02
-10.28
-9.78
-8.55
-6.70
-4.46
-2.13
-0.06
1.50
2.47
2.95
3.14
3.19
3.14
2.99
2.78
2.72
3.09
4.11
5.74
7.64
9.28
10.21
10.34
9.92
9.45
9.35
9.77
10.51
11.26
11.75
11.90
11.81
11.58
11.17
10.37
8.95
6.85
4.27
1.65
-0.60
-2.25
-3.37
-4.23
-5.11
-6.16
-7.28
-8.27
-8.88
-9.02
-8.77
-8.38
-8.13
-8.18
-8.53
-8.95
-9.14
-8.90
-8.28
-7.61
-7.31
-7.74
-8.93
-10.63
-12.36
-13.61
-13.97
-13.17
-11.13
-7.99
-4.11
0.02
3.82
6.90
9.22
11.05
12.67
14.17
15.36
15.96
15.99
15.99
16.88
19.56
24.43
31.11
38.61
45.71
51.53
55.76
58.66
60.82
62.85
65.07
67.51
69.84
71.57
72.18
71.32
68.97
65.42
61.05
56.14
50.66
44.28
36.53
27.02
15.66
2.61
-11.67
-26.55
-41.18
-54.54
-65.54
-73.34
-77.67
-79.03
-78.58
-77.69
-77.32
-77.62
-77.89
-77.03
-74.16
-69.10
-62.48
-55.41
-48.95
-43.61
-39.30
-35.49
-31.64
-27.49
-23.13
-18.85
-14.85
-11.16
-7.64
-4.19
-0.92
1.76
3.44
3.94
3.45
2.53
1.85
1.85
2.66
4.00
5.44
6.55
7.09
7.03
6.56
5.90
5.32
4.99
5.06
5.52
6.23
6.89
7.10
6.47
4.84
2.33
-0.62
-3.39
-5.47
-6.58
-6.77
-6.24
-5.24
-3.91
-2.33
-0.59
1.12
2.56
3.59
4.12
4.17
3.84
3.17
2.27
1.31
0.50
0.09
0.18
0.63
1.10
1.29
1.01
0.34
-0.43
-1.01
-1.19
-0.92
-0.31
0.45
1.14
1.60
1.71
1.40
0.71
-0.30
-1.55
-2.96
-4.36
-5.47
-6.01
-5.80
-4.88
-3.62
-2.49
-1.86
-1.76
-1.88
-1.79
-1.21
-0.22
0.89
1.81
2.45
2.93
3.39
3.76
3.74
2.93
1.15
-1.35
-4.00
-6.08
-7.08
-6.90
-5.81
-4.32
-2.90
-1.90
-1.46
-1.62
-2.34
-3.59
-5.20
-6.81
-7.92
-7.99
-6.77
-4.37
-1.34
1.58
3.76
4.90
5.16
4.87
4.41
3.99
3.69
3.50
3.44
3.53
3.73
3.88
3.73
3.05
1.65
-0.56
-3.59
-7.37
-11.73
-16.40
-20.99
-25.08
-28.27
-30.34
-31.30
-31.29
-30.64
-29.67
-28.70
-27.96
-27.52
-27.30
-27.03
-26.34
-24.89
-22.50
-19.28
-15.64
-12.05
-8.90
-6.27
-3.84
-1.12
2.23
6.18
10.25
13.74
16.07
17.07
16.98
16.27
15.37
14.62
14.29
14.68
16.04
18.36
21.20
23.76
25.28
25.39
24.43
23.25
22.77
23.46
25.17
27.27
29.03
29.97
29.93
29.00
27.34
25.16
22.71
20.25
17.95
15.78
13.58
11.12
8.33
5.38
2.56
0.20
-1.53
-2.59
-2.97
-2.62
-1.48
0.44
2.90
5.40
7.30
8.06
7.47
5.67
3.10
0.33
-2.17
-4.09
-5.31
-5.90
-6.00
-5.78
-5.34
-4.73
-3.94
-3.01
-1.94
-0.84
0.24
1.19
1.92
2.32
2.33
1.95
1.25
0.40
-0.35
-0.77
-0.78
-0.47
-0.09
0.07
-0.14
-0.64
-1.10
-1.13
-0.48
0.90
2.76
4.73
6.45
7.72
8.43
8.60
8.28
7.55
6.54
5.42
4.33
3.36
2.45
1.50
0.42
-0.73
-1.78
-2.57
-3.02
-3.20
-3.31
-3.50
-3.82
-4.17
-4.38
-4.42
-4.37
-4.46
-4.91
-5.79
-6.91
-7.86
-8.23
-7.85
-6.89
-5.81
-5.08
-5.01
-5.54
-6.35
-6.95
-7.04
-6.48
-5.38
-3.89
-2.13
-0.12
2.06
4.24
6.14
7.46
8.03
7.91
7.34
6.63
5.99
5.52
5.16
4.78
4.29
3.66
2.93
2.17
1.46
0.89
0.47
0.19
0.01
-0.13
-0.32
-0.64
-1.19
-2.02
-3.10
-4.34
-5.61
-6.77
-7.77
-8.60
-9.27
-9.75
-9.92
-9.64
-8.79
-7.40
-5.65
-3.78
-2.00
-0.45
0.82
1.79
2.46
2.84
3.02
3.04
2.93
2.67
2.19
1.47
0.60
-0.22
-0.84
-1.18
-1.29
-1.28
-1.20
-1.05
-0.75
-0.30
0.18
0.53
0.57
0.26
-0.30
-0.94
-1.46
-1.74
-1.78
-1.73
-1.81
-2.21
-2.93
-3.78
-4.49
-4.77
-4.53
-3.80
-2.73
-1.36
0.31
2.30
4.45
6.46
7.96
8.66
8.53
7.73
6.50
5.03
3.48
1.98
0.78
0.05
-0.16
-0.02
0.08
-0.16
-0.86
-1.84
-2.74
-3.22
-3.13
-2.60
-1.84
-1.16
-0.77
-0.80
-1.23
-1.93
-2.75
-3.52
-4.16
-4.72
-5.22
-5.61
-5.74
-5.35
-4.30
-2.67
-0.75
1.02
2.35
3.10
3.40
3.42
3.36
3.33
3.44
3.75
4.26
4.85
5.31
5.35
4.79
3.65
2.18
0.74
-0.37
-1.05
-1.36
-1.46
-1.47
-1.38
-1.11
-0.67
-0.17
0.13
-0.04
-0.80
-2.05
-3.46
-4.55
-5.01
-4.73
-3.92
-3.05
-2.60
-2.88
-3.85
-5.10
-6.05
-6.11
-5.01
-2.84
-0.13
2.48
4.45
5.45
5.53
4.91
3.94
2.94
2.15
1.69
1.57
1.73
1.97
2.12
2.02
1.63
1.01
0.31
-0.32
-0.73
-0.87
-0.78
-0.54
-0.24
0.01
0.16
0.16
-0.02
-0.40
-0.94
-1.59
-2.22
-2.79
-3.31
-3.74
-4.04
-4.07
-3.67
-2.69
-1.16
0.69
2.45
3.76
4.48
4.64
4.46
4.14
3.73
3.14
2.30
1.25
0.18
-0.63
-0.97
-0.81
-0.31
0.23
0.53
0.50
0.23
-0.04
-0.09
0.16
0.57
0.90
0.91
0.50
-0.18
-0.88
-1.31
-1.37
-1.15
-0.98
-1.18
-1.94
-3.14
-4.43
-5.35
-5.56
-4.97
-3.74
-2.17
-0.52
1.03
2.43
3.64
4.60
5.16
5.16
4.56
3.45
2.14
0.96
0.20
0.03
0.41
1.13
1.92
2.56
2.88
2.88
2.58
2.03
1.19
0.09
-1.19
-2.39
-3.17
-3.28
-2.76
-1.93
-1.33
-1.47
-2.53
-4.31
-6.29
-7.89
-8.64
-8.38
-7.19
-5.36
-3.21
-1.04
0.90
2.40
3.30
3.52
3.14
2.42
1.66
1.17
1.09
1.31
1.61
1.72
1.48
0.91
0.22
-0.33
-0.57
-0.47
-0.15
0.16
0.22
-0.10
-0.80
-1.70
-2.52
-3.00
-3.03
-2.73
-2.37
-2.25
-2.47
-2.96
-3.44
-3.68
-3.61
-3.34
-3.08
-2.93
-2.81
-2.50
-1.77
-0.57
0.94
2.49
3.77
4.60
4.95
4.88
4.46
3.84
3.15
2.57
2.24
2.21
2.38
2.64
2.87
2.98
3.01
2.95
2.80
2.50
1.96
1.16
0.13
-1.06
-2.33
-3.54
-4.54
-5.19
-5.40
-5.27
-5.05
-5.03
-5.46
-6.34
-7.44
-8.42
-8.98
-8.94
-8.23
-6.88
-4.92
-2.44
0.31
2.95
5.00
6.12
6.28
5.71
4.81
3.94
3.20
2.50
1.72
0.78
-0.16
-0.83
-1.05
-0.80
-0.24
0.36
0.76
0.82
0.54
0.07
-0.42
-0.79
-1.04
-1.22
-1.49
-1.96
-2.58
-3.12
-3.31
-3.02
-2.40
-1.86
-1.81
-2.47
-3.62
-4.73
-5.26
-4.87
-3.65
-1.98
-0.21
1.47
3.08
4.72
6.32
7.54
7.97
7.37
5.86
3.91
2.11
0.89
0.31
0.09
-0.13
-0.52
-0.97
-1.17
-0.83
0.09
1.29
2.31
2.70
2.29
1.26
0.05
-0.89
-1.34
-1.43
-1.50
-1.91
-2.84
-4.16
-5.55
-6.72
-7.50
-7.93
-8.11
-8.11
-7.81
-7.06
-5.71
-3.83
-1.66
0.43
2.14
3.26
3.79
3.87
3.75
3.66
3.72
3.93
4.13
4.15
3.85
3.23
2.47
1.78
1.39
1.40
1.72
2.19
2.62
2.87
2.92
2.77
2.45
1.99
1.41
0.73
-0.00
-0.76
-1.45
-1.99
-2.28
-2.37
-2.41
-2.62
-3.17
-4.13
-5.35
-6.50
-7.19
-7.12
-6.21
-4.62
-2.65
-0.70
0.94
2.12
2.88
3.38
3.80
4.26
4.77
5.26
5.66
5.94
6.12
6.24
6.31
6.26
6.03
5.65
5.21
4.82
4.56
4.35
4.10
3.70
3.18
2.62
2.13
1.74
1.34
0.85
0.23
-0.45
-1.12
-1.70
-2.21
-2.73
-3.28
-3.91
-4.60
-5.41
-6.37
-7.53
-8.71
-9.58
-9.71
-8.75
-6.66
-3.76
-0.57
2.29
4.44
5.72
6.20
6.08
5.61
5.03
4.60
4.57
5.05
6.02
7.17
8.08
8.37
7.86
6.71
5.32
4.15
3.50
3.40
3.63
3.91
4.04
4.01
3.90
3.75
3.51
3.02
2.18
1.07
-0.03
-0.80
-1.06
-0.90
-0.65
-0.70
-1.31
-2.45
-3.90
-5.38
-6.70
-7.74
-8.52
-8.98
-9.02
-8.49
-7.39
-5.82
-4.00
-2.18
-0.49
1.04
2.39
3.60
4.67
5.56
6.26
6.73
6.91
6.71
6.07
5.04
3.86
2.85
2.32
2.40
2.92
3.52
3.78
3.45
2.55
1.32
0.11
-0.77
-1.15
-1.08
-0.76
-0.46
-0.44
-0.85
-1.68
-2.84
-4.11
-5.29
-6.22
-6.70
-6.64
-6.11
-5.35
-4.73
-4.59
-5.07
-5.95
-6.74
-6.87
-5.98
-4.09
-1.51
1.22
3.64
5.49
6.71
7.37
7.64
7.66
7.55
7.42
7.34
7.38
7.52
7.64
7.55
7.08
6.20
5.05
3.96
3.23
3.02
3.20
3.39
3.15
2.24
0.70
-1.12
-2.73
-3.76
-4.09
-3.89
-3.50
-3.25
-3.30
-3.59
-3.96
-4.23
-4.30
-4.19
-3.91
-3.43
-2.70
-1.69
-0.46
0.88
2.19
3.42
4.52
5.47
6.23
6.68
6.72
6.32
5.56
4.59
3.62
2.81
2.23
1.92
1.84
1.91
2.04
2.14
2.12
1.93
1.60
1.18
0.72
0.28
-0.10
-0.38
-0.54
-0.65
-0.73
-0.89
-1.17
-1.64
-2.32
-3.27
-4.49
-5.97
-7.55
-8.99
-9.95
-10.16
-9.48
-7.97
-5.87
-3.54
-1.35
0.42
1.68
2.47
2.94
3.30
3.68
4.08
4.42
4.60
4.52
4.17
3.62
2.97
2.34
1.80
1.42
1.24
1.30
1.59
2.00
2.39
2.60
2.51
2.09
1.39
0.55
-0.24
-0.77
-0.93
-0.79
-0.58
-0.62
-1.17
-2.30
-3.78
-5.27
-6.39
-6.93
-6.86
-6.29
-5.35
-4.07
-2.51
-0.71
1.17
2.92
4.35
5.35
5.85
5.85
5.41
4.67
3.93
3.43
3.35
3.60
3.94
4.02
3.69
3.05
2.42
2.10
2.16
2.40
2.45
2.06
1.19
0.09
-0.93
-1.64
-1.97
-1.96
-1.79
-1.60
-1.57
-1.88
-2.65
-3.84
-5.21
-6.36
-6.91
-6.71
-5.86
-4.69
-3.49
-2.39
-1.29
-0.02
1.48
3.04
4.31
4.95
4.79
3.98
2.90
2.01
1.60
1.71
2.11
2.43
2.39
1.87
1.02
0.18
-0.32
-0.33
0.08
0.67
1.13
1.26
1.05
0.62
0.18
-0.14
-0.34
-0.51
-0.87
-1.55
-2.55
-3.76
-4.91
-5.75
-6.11
-5.94
-5.30
-4.35
-3.27
-2.15
-1.06
-0.02
0.97
1.84
2.53
2.96
3.12
3.03
2.81
2.56
2.33
2.14
2.00
1.95
2.06
2.37
2.79
3.19
3.43
3.41
3.12
2.61
1.94
1.21
0.48
-0.12
-0.52
-0.73
-0.82
-0.96
-1.32
-1.92
-2.69
-3.46
-4.07
-4.44
-4.61
-4.61
-4.47
-4.17
-3.63
-2.79
-1.66
-0.31
1.07
2.22
2.91
3.03
2.60
1.85
1.12
0.73
0.83
1.31
1.95
2.46
2.69
2.68
2.60
2.62
2.84
3.17
3.40
3.27
2.62
1.55
0.28
-0.85
-1.63
-2.05
-2.24
-2.42
-2.82
-3.49
-4.34
-5.18
-5.80
-6.08
-6.04
-5.74
-5.28
-4.72
-4.05
-3.20
-2.14
-0.87
0.49
1.74
2.70
3.23
3.31
3.08
2.72
2.40
2.22
2.13
2.04
1.88
1.57
1.15
0.75
0.44
0.31
0.35
0.53
0.71
0.82
0.76
0.46
-0.11
-0.97
-2.03
-3.14
-4.13
-4.85
-5.27
-5.49
-5.72
-6.09
-6.65
-7.25
-7.57
-7.34
-6.39
-4.77
-2.70
-0.45
1.71
3.58
5.03
5.98
6.42
6.36
5.91
5.19
4.42
3.77
3.35
3.21
3.32
3.55
3.71
3.62
3.15
2.26
1.10
-0.10
-1.09
-1.71
-2.00
-2.09
-2.15
-2.32
-2.65
-3.10
-3.59
-4.10
-4.58
-5.02
-5.42
-5.76
-6.07
-6.28
-6.38
-6.25
-5.77
-4.88
-3.63
-2.14
-0.60
0.83
2.05
3.09
4.01
4.80
5.42
5.75
5.67
5.14
4.16
2.85
1.33
-0.21
-1.49
-2.24
-2.27
-1.59
-0.46
0.66
1.39
1.56
1.31
0.98
0.88
1.19
1.73
2.21
2.32
1.95
1.17
0.19
-0.73
-1.40
-1.65
-1.41
-0.73
0.21
1.16
1.87
2.25
2.40
2.53
2.97
3.91
5.40
7.28
9.22
10.77
11.42
10.79
8.71
5.44
1.68
-1.55
-3.30
-3.03
-0.93
2.21
5.34
7.60
8.58
8.41
7.49
6.24
4.86
3.34
1.61
-0.24
-2.00
-3.44
-4.46
-5.19
-5.92
-6.94
-8.41
-10.25
-12.22
-14.04
-15.52
-16.68
-17.70
-18.79
-20.12
-21.65
-23.11
-24.03
-24.01
-22.79
-20.47
-17.46
-14.32
-11.54
-9.42
-8.04
-7.31
-7.04
-7.00
-6.88
-6.34
-5.01
-2.67
0.60
4.46
8.34
11.73
14.30
16.05
17.19
18.01
18.74
19.49
20.35
21.36
22.65
24.31
26.39
28.73
31.01
32.80
33.67
33.34
31.74
28.92
25.07
20.43
15.26
9.94
4.93
0.77
-2.11
-3.54
-3.62
-2.77
-1.54
-0.46
0.16
0.25
-0.11
-0.68
-1.26
-1.56
-1.28
0.00
2.68
6.94
12.65
19.19
25.61
30.91
34.37
35.76
35.32
33.60
31.14
28.33
25.47
22.82
20.65
19.16
18.29
17.63
16.46
14.02
9.84
3.90
-3.45
-11.85
-21.16
-31.56
-43.34
-56.48
-70.43
-83.97
-95.53
-103.57
-107.09
-105.73
-99.83
-90.23
-78.06
-64.51
-50.62
-37.17
-24.57
-12.96
-2.35
7.16
15.26
21.45
25.26
26.48
25.29
22.20
17.95
13.21
8.57
4.36
0.84
-1.86
-3.66
-4.66
-5.04
-5.03
-4.80
-4.46
-4.06
-3.73
-3.72
-4.21
-5.24
-6.58
-7.78
-8.38
-8.21
-7.45
-6.55
-5.95
-5.87
-6.16
-6.56
-6.95
-7.39
-7.92
-8.18
-7.37
-4.61
0.39
6.92
13.31
17.69
18.93
17.28
14.15
11.40
10.36
11.22
13.23
15.36
16.92
17.91
18.77
19.96
21.63
23.51
25.15
26.07
25.93
24.61
22.16
18.77
14.82
10.71
6.87
3.58
0.92
-1.25
-3.21
-5.26
-7.56
-10.12
-12.69
-14.90
-16.35
-16.72
-15.87
-13.85
-10.82
-7.08
-3.01
1.00
4.64
7.71
10.15
12.05
13.53
14.72
15.69
16.52
17.29
18.09
18.91
19.56
19.74
19.12
17.61
15.45
13.12
11.10
9.60
8.43
7.16
5.47
3.27
0.82
-1.54
-3.55
-5.22
-6.75
-8.29
-9.78
-10.92
-11.35
-10.89
-9.62
-7.95
-6.35
-5.15
-4.45
-4.11
-3.96
-3.90
-3.93
-4.07
-4.20
-4.05
-3.30
-1.84
0.10
1.99
3.27
3.64
3.22
2.41
1.72
1.42
1.48
1.60
1.56
1.34
1.20
1.45
2.22
3.32
4.33
4.83
4.62
3.85
2.90
2.13
1.66
1.31
0.67
-0.61
-2.57
-4.80
-6.59
-7.29
-6.59
-4.67
-2.12
0.38
2.34
3.64
4.42
4.90
5.15
5.08
4.54
3.42
1.86
0.16
-1.35
-2.40
-2.84
-2.68
-2.05
-1.14
-0.24
0.43
0.74
0.71
0.51
0.39
0.54
0.98
1.53
1.90
1.89
1.44
0.77
0.18
-0.11
-0.11
-0.08
-0.34
-1.08
-2.24
-3.52
-4.56
-5.15
-5.28
-5.09
-4.72
-4.22
-3.54
-2.60
-1.31
0.30
2.12
3.91
5.37
6.16
6.09
5.21
3.80
2.27
0.97
0.06
-0.51
-0.91
-1.23
-1.43
-1.40
-1.07
-0.51
0.08
0.47
0.51
0.23
-0.20
-0.56
-0.76
-0.76
-0.66
-0.62
-0.76
-1.18
-1.90
-2.88
-4.00
-5.09
-5.93
-6.29
-6.01
-5.04
-3.47
-1.55
0.44
2.15
3.30
3.77
3.57
2.90
2.06
1.31
0.81
0.57
0.43
0.25
-0.05
-0.45
-0.84
-1.08
-1.04
-0.62
0.24
1.41
2.67
3.63
3.94
3.44
2.25
0.78
-0.52
-1.29
-1.50
-1.35
-1.24
-1.45
-2.14
-3.28
-4.69
-6.14
-7.38
-8.21
-8.41
-7.86
-6.52
-4.45
-1.95
0.56
2.54
3.64
3.72
3.05
2.07
1.23
0.78
0.65
0.66
0.63
0.56
0.55
0.73
1.10
1.55
1.89
2.00
1.88
1.57
1.15
0.65
0.09
-0.55
-1.26
-2.00
-2.71
-3.28
-3.64
-3.79
-3.82
-3.95
-4.36
-5.13
-6.11
-6.97
-7.35
-7.01
-5.98
-4.47
-2.81
-1.25
0.09
1.18
2.03
2.66
3.08
3.33
3.42
3.35
3.10
2.69
2.18
1.64
1.17
0.85
0.62
0.42
0.20
-0.01
-0.11
0.00
0.26
0.50
0.52
0.19
-0.41
-1.06
-1.53
-1.78
-1.94
-2.32
-3.13
-4.34
-5.64
-6.55
-6.69
-5.94
-4.49
-2.67
-0.84
0.77
2.09
3.12
3.89
4.38
4.55
4.37
3.88
3.13
2.24
1.32
0.51
-0.06
-0.26
-0.03
0.55
1.29
1.97
2.37
2.41
2.07
1.48
0.76
-0.01
-0.74
-1.35
-1.75
-1.91
-1.85
-1.70
-1.73
-2.22
-3.32
-4.98
-6.85
-8.46
-9.38
-9.39
-8.51
-7.02
-5.23
-3.43
-1.73
-0.18
1.21
2.43
3.49
4.38
5.11
5.68
6.00
5.94
5.45
4.61
3.66
2.87
2.45
2.39
2.55
2.71
2.74
2.66
2.58
2.55
2.59
2.58
2.44
2.10
1.60
1.00
0.40
-0.20
-0.84
-1.57
-2.39
-3.22
-3.92
-4.41
-4.63
-4.66
-4.60
-4.52
-4.38
-4.09
-3.44
-2.31
-0.72
1.10
2.77
3.95
4.41
4.23
3.65
3.04
2.67
2.57
2.63
2.62
2.46
2.21
2.04
2.10
2.40
2.80
3.09
3.18
3.09
2.97
2.92
2.98
3.07
3.10
3.03
2.86
2.66
2.49
2.33
2.16
1.94
1.64
1.19
0.60
-0.14
-0.89
-1.46
-1.65
-1.39
-0.82
-0.27
-0.11
-0.54
-1.50
-2.68
-3.79
-4.59
-5.06
-5.31
-5.43
-5.48
-5.52
-5.61
-5.79
-6.07
-6.32
-6.27
-5.68
-4.50
-2.85
-1.02
0.67
2.03
3.00
3.62
3.92
3.97
3.83
3.65
3.52
3.46
3.38
3.15
2.66
1.93
1.12
0.50
0.30
0.60
1.35
2.34
3.36
4.19
4.69
4.80
4.58
4.11
3.54
3.00
2.55
2.15
1.71
1.18
0.52
-0.22
-0.99
-1.70
-2.30
-2.81
-3.26
-3.64
-3.92
-4.01
-3.83
-3.39
-2.86
-2.48
-2.53
-3.16
-4.27
-5.62
-6.89
-7.81
-8.23
-8.16
-7.62
-6.66
-5.33
-3.69
-1.92
-0.26
1.04
1.86
2.28
2.49
2.69
3.01
3.39
3.64
3.58
3.18
2.56
2.00
1.77
1.99
2.58
3.31
3.95
4.40
4.67
4.82
4.85
4.68
4.21
3.38
2.31
1.24
0.47
0.21
0.48
1.15
1.85
2.24
2.02
1.14
-0.17
-1.44
-2.14
-2.03
-1.19
-0.14
0.49
0.21
-1.06
-2.97
-4.96
-6.57
-7.58
-8.10
-8.32
-8.36
-8.22
-7.75
-6.85
-5.54
-3.98
-2.43
-1.08
-0.01
0.83
1.54
2.16
2.64
2.89
2.84
2.60
2.36
2.36
2.77
3.59
4.55
5.32
5.63
5.36
4.72
4.04
3.62
3.56
3.71
3.79
3.51
2.83
1.95
1.27
1.09
1.49
2.26
2.94
3.12
2.62
1.56
0.27
-0.87
-1.62
-1.91
-1.89
-1.74
-1.63
-1.64
-1.72
-1.84
-1.98
-2.26
-2.88
-3.95
-5.45
-7.09
-8.43
-9.03
-8.69
-7.48
-5.76
-3.98
-2.45
-1.37
-0.71
-0.37
-0.20
-0.10
0.03
0.25
0.58
1.08
1.68
2.33
2.93
3.38
3.60
3.61
3.51
3.40
3.43
3.64
4.00
4.33
4.42
4.07
3.24
2.06
0.83
-0.06
-0.34
0.08
1.00
2.03
2.79
3.03
2.75
2.14
1.45
0.87
0.46
0.17
-0.12
-0.51
-1.04
-1.72
-2.46
-3.19
-3.89
-4.55
-5.18
-5.75
-6.18
-6.39
-6.28
-5.80
-5.01
-4.01
-2.94
-1.86
-0.77
0.35
1.44
2.40
3.04
3.19
2.77
1.83
0.62
-0.53
-1.22
-1.20
-0.39
1.00
2.55
3.81
4.48
4.50
4.11
3.69
3.55
3.81
4.32
4.74
4.76
4.18
3.07
1.65
0.24
-0.86
-1.47
-1.62
-1.47
-1.24
-1.11
-1.16
-1.36
-1.63
-1.94
-2.33
-2.84
-3.43
-4.04
-4.57
-5.06
-5.60
-6.27
-7.07
-7.77
-8.10
-7.83
-6.96
-5.70
-4.30
-2.93
-1.60
-0.23
1.22
2.69
3.99
4.94
5.47
5.59
5.34
4.80
4.06
3.32
2.77
2.52
2.56
2.71
2.76
2.59
2.28
2.01
1.91
1.98
2.11
2.15
2.06
1.89
1.70
1.51
1.23
0.69
-0.14
-1.16
-2.14
-2.83
-3.11
-3.03
-2.78
-2.56
-2.47
-2.51
-2.68
-3.02
-3.67
-4.65
-5.83
-6.86
-7.33
-6.95
-5.76
-4.14
-2.58
-1.44
-0.83
-0.59
-0.44
-0.24
0.06
0.38
0.67
0.97
1.29
1.66
2.02
2.30
2.43
2.39
2.21
1.88
1.45
0.94
0.48
0.31
0.61
1.39
2.45
3.40
3.84
3.56
2.69
1.56
0.56
-0.06
-0.32
-0.41
-0.58
-1.01
-1.71
-2.56
-3.34
-3.89
-4.15
-4.11
-3.93
-3.76
-3.76
-3.95
-4.20
-4.29
-3.97
-3.15
-1.90
-0.46
0.86
1.84
2.38
2.48
2.25
1.84
1.40
1.06
0.92
1.01
1.25
1.54
1.77
1.86
1.84
1.76
1.69
1.59
1.36
0.82
-0.06
-1.11
-1.91
-2.07
-1.39
-0.09
1.26
1.95
1.56
0.20
-1.54
-2.97
-3.64
-3.63
-3.41
-3.52
-4.15
-5.06
-5.73
-5.74
-4.93
-3.53
-1.97
-0.57
0.49
1.28
1.93
2.53
3.00
3.14
2.81
2.00
0.95
0.01
-0.42
-0.20
0.61
1.65
2.52
2.96
2.88
2.39
1.69
0.92
0.24
-0.25
-0.47
-0.48
-0.38
-0.43
-0.81
-1.66
-2.88
-4.29
-5.66
-6.80
-7.65
-8.14
-8.24
-7.89
-7.08
-5.87
-4.42
-2.94
-1.63
-0.56
0.33
1.07
1.70
2.15
2.34
2.24
1.89
1.44
1.05
0.82
0.70
0.54
0.20
-0.34
-0.97
-1.54
-1.89
-2.02
-1.99
-1.86
-1.72
-1.48
-1.13
-0.67
-0.26
-0.13
-0.49
-1.42
-2.75
-4.19
-5.38
-6.08
-6.20
-5.80
-4.96
-3.81
-2.47
-1.09
0.18
1.18
1.90
2.42
2.88
3.44
4.14
4.91
5.59
6.00
5.99
5.51
4.61
3.49
2.37
1.49
1.00
0.90
1.07
1.32
1.45
1.36
1.03
0.52
-0.08
-0.71
-1.33
-1.94
-2.54
-3.20
-3.96
-4.83
-5.76
-6.66
-7.41
-7.84
-7.75
-7.00
-5.50
-3.37
-0.90
1.49
3.44
4.72
5.36
5.53
5.43
5.24
5.03
4.85
4.72
4.62
4.47
4.14
3.51
2.61
1.57
0.63
0.05
-0.05
0.33
1.05
1.87
2.48
2.64
2.17
1.09
-0.40
-2.01
-3.52
-4.81
-5.92
-6.85
-7.53
-7.80
-7.52
-6.64
-5.30
-3.70
-1.98
-0.23
1.52
3.12
4.31
4.85
4.66
3.94
3.10
2.52
2.35
2.49
2.73
2.95
3.18
3.50
3.91
4.30
4.40
3.98
3.05
1.85
0.76
0.15
0.17
0.68
1.31
1.61
1.16
-0.17
-2.28
-4.82
-7.30
-9.22
-10.26
-10.33
-9.53
-8.07
-6.19
-4.11
-2.01
-0.04
1.70
3.17
4.37
5.35
6.13
6.64
6.75
6.38
5.59
4.57
3.62
3.00
2.76
2.72
2.68
2.44
1.99
1.50
1.10
0.79
0.42
-0.21
-1.21
-2.48
-3.72
-4.62
-5.06
-5.14
-5.20
-5.59
-6.51
-7.87
-9.31
-10.39
-10.75
-10.22
-8.83
-6.79
-4.38
-1.83
0.64
2.91
4.86
6.33
7.22
7.41
6.95
6.07
5.16
4.58
4.55
5.08
5.91
6.70
7.11
7.01
6.40
5.45
4.39
3.43
2.78
2.54
2.68
2.94
2.90
2.17
0.54
-1.89
-4.69
-7.40
-9.64
-11.20
-12.11
-12.46
-12.24
-11.41
-9.91
-7.83
-5.41
-3.01
-0.85
1.03
2.84
4.85
7.18
9.67
11.84
13.18
13.33
12.33
10.54
8.57
6.98
6.07
5.90
6.31
7.08
8.01
8.93
9.63
9.91
9.58
8.53
6.84
4.72
2.48
0.43
-1.27
-2.63
-3.81
-5.01
-6.39
-7.97
-9.65
-11.25
-12.58
-13.43
-13.63
-12.99
-11.40
-8.92
-5.79
-2.47
0.58
2.99
4.69
5.93
7.09
8.42
9.92
11.31
12.23
12.43
11.95
11.07
10.15
9.48
9.09
8.85
8.65
8.42
8.26
8.31
8.59
9.00
9.29
9.19
8.54
7.34
5.73
3.96
2.22
0.63
-0.79
-2.09
-3.30
-4.47
-5.62
-6.81
-8.16
-9.78
-11.69
-13.66
-15.24
-15.88
-15.13
-12.91
-9.60
-5.78
-2.11
1.03
3.58
5.69
7.50
9.03
10.15
10.78
11.01
11.12
11.41
12.02
12.83
13.52
13.74
13.37
12.57
11.65
10.91
10.53
10.43
10.43
10.36
10.12
9.72
9.17
8.49
7.66
6.68
5.61
4.60
3.85
3.50
3.53
3.70
3.64
2.99
1.63
-0.27
-2.27
-3.88
-4.80
-4.99
-4.75
-4.43
-4.34
-4.58
-5.14
-6.00
-7.22
-8.91
-11.09
-13.64
-16.26
-18.54
-20.08
-20.58
-19.87
-17.95
-15.01
-11.34
-7.38
-3.57
-0.24
2.47
4.63
6.40
7.94
9.23
10.16
10.58
10.46
9.98
9.42
9.12
9.23
9.74
10.41
11.02
11.39
11.54
11.58
11.65
11.77
11.84
11.68
11.16
10.27
9.09
7.74
6.35
4.95
3.56
2.21
0.93
-0.23
-1.23
-2.11
-2.97
-3.89
-4.86
-5.73
-6.35
-6.65
-6.77
-7.05
-7.79
-9.17
-11.06
-13.08
-14.76
-15.72
-15.78
-14.95
-13.37
-11.18
-8.48
-5.41
-2.17
0.92
3.53
5.43
6.55
7.05
7.18
7.25
7.47
7.89
8.38
8.77
8.89
8.74
8.42
8.11
7.95
7.92
7.95
7.91
7.74
7.54
7.42
7.46
7.63
7.79
7.81
7.64
7.35
7.07
6.86
6.69
6.44
5.99
5.28
4.35
3.36
2.48
1.84
1.51
1.43
1.51
1.65
1.88
2.37
3.38
5.16
7.81
11.23
14.99
18.56
21.28
22.55
21.93
19.18
14.36
7.88
0.48
-6.93
-13.47
-18.55
-21.88
-23.52
-23.73
-22.78
-20.85
-18.03
-14.34
-9.74
-4.32
1.80
8.39
15.16
21.81
28.00
33.41
37.80
41.10
43.51
45.48
47.69
50.76
55.02
60.25
65.72
70.42
73.51
74.66
74.24
73.00
71.64
70.28
68.24
64.30
57.21
46.37
32.21
16.08
-0.14
-14.77
-26.73
-35.75
-42.15
-46.38
-48.85
-49.78
-49.38
-48.11
-46.75
-46.13
-46.82
-48.86
-51.66
-54.29
-55.89
-56.03
-54.83
-52.84
-50.71
-49.04
-48.09
-47.86
-48.15
-48.61
-48.95
-48.97
-48.72
-48.45
-48.56
-49.31
-50.75
-52.59
-54.27
-55.15
-54.74
-52.75
-49.19
-44.38
-38.74
-32.82
-27.06
-21.82
-17.25
-13.35
-10.02
-7.09
-4.38
-1.73
0.96
3.73
6.50
9.10
11.32
13.03
14.15
14.72
14.80
14.48
13.82
12.86
11.62
10.16
8.53
6.83
5.14
3.53
2.02
0.64
-0.61
-1.68
-2.47
-2.88
-2.83
-2.28
-1.30
0.10
1.88
4.06
6.55
9.09
11.31
12.83
13.48
13.36
12.80
12.20
11.76
11.49
11.23
10.82
10.27
9.73
9.40
9.44
9.87
10.63
11.60
12.66
13.58
14.00
13.55
11.95
9.25
5.79
2.13
-1.20
-3.98
-6.24
-8.23
-10.17
-12.03
-13.58
-14.52
-14.69
-14.19
-13.35
-12.56
-12.09
-11.97
-12.05
-12.19
-12.35
-12.63
-13.21
-14.16
-15.35
-16.44
-16.98
-16.59
-15.09
-12.53
-9.11
-5.12
-0.88
3.31
7.17
10.55
13.42
15.93
18.33
20.80
23.28
25.46
26.77
26.72
25.08
22.04
18.09
13.86
9.81
6.14
2.84
-0.26
-3.33
-6.41
-9.46
-12.30
-14.63
-16.03
-16.08
-14.49
-11.29
-6.95
-2.26
1.79
4.40
5.19
4.22
2.09
-0.40
-2.42
-3.35
-2.96
-1.35
1.11
3.94
6.72
9.19
11.31
13.16
14.91
16.72
18.72
20.98
23.53
26.39
29.51
32.77
36.02
39.13
42.11
45.13
48.43
52.16
56.24
60.26
63.58
65.54
65.66
63.74
59.88
54.37
47.60
39.97
31.86
23.61
15.49
7.69
0.33
-6.44
-12.43
-17.41
-21.24
-23.87
-25.44
-26.18
-26.33
-26.05
-25.45
-24.65
-23.83
-23.21
-23.00
-23.34
-24.23
-25.60
-27.28
-29.05
-30.65
-31.82
-32.34
-32.14
-31.37
-30.30
-29.30
-28.66
-28.48
-28.65
-28.91
-28.95
-28.56
-27.73
-26.60
-25.40
-24.32
-23.46
-22.76
-22.12
-21.31
-20.07
-18.17
-15.39
-11.67
-7.15
-2.15
2.86
7.43
11.27
14.31
16.63
18.34
19.54
20.30
20.72
20.93
21.09
21.25
21.47
21.72
21.98
22.24
22.46
22.66
22.80
22.82
22.61
22.01
20.80
18.88
16.29
13.28
10.26
7.57
5.29
3.10
0.42
-3.43
-8.85
-15.77
-23.67
-31.67
-38.86
-44.44
-47.96
-49.23
-48.45
-46.02
-42.51
-38.54
-34.60
-30.99
-27.74
-24.78
-22.00
-19.39
-17.12
-15.37
-14.24
-13.56
-13.07
-12.50
-11.78
-11.07
-10.63
-10.68
-11.25
-12.33
-13.92
-16.14
-19.01
-22.38
-25.82
-28.75
-30.71
-31.66
-31.98
-32.25
-32.86
-33.69
-34.08
-33.18
-30.42
-25.81
-19.91
-13.56
-7.48
-2.05
2.69
6.87
10.62
13.93
16.82
19.37
21.81
24.45
27.49
30.79
33.92
36.35
37.65
37.76
36.87
35.34
33.40
31.06
28.18
24.60
20.44
16.11
12.19
9.23
7.50
6.93
7.18
7.84
8.54
9.10
9.45
9.64
9.74
9.79
9.75
9.46
8.72
7.34
5.26
2.55
-0.62
-3.99
-7.27
-10.07
-12.01
-12.69
-11.95
-9.96
-7.20
-4.37
-2.07
-0.64
-0.00
0.24
0.56
1.35
2.67
4.36
6.10
7.55
8.53
9.03
9.13
8.88
8.21
6.97
5.06
2.54
-0.41
-3.58
-6.88
-10.40
-14.24
-18.41
-22.62
-26.28
-28.66
-29.12
-27.43
-23.90
-19.25
-14.37
-10.02
-6.61
-4.17
-2.53
-1.48
-0.92
-0.81
-1.07
-1.48
-1.70
-1.42
-0.42
1.25
3.39
5.74
8.03
10.09
11.79
12.98
13.54
13.43
12.60
11.15
9.22
7.02
4.79
2.77
1.12
-0.11
-1.03
-1.85
-2.81
-4.01
-5.48
-7.13
-8.84
-10.51
-12.13
-13.72
-15.33
-17.00
-18.72
-20.46
-22.18
-23.83
-25.41
-26.93
-28.43
-29.92
-31.25
-32.14
-32.28
-31.42
-29.46
-26.49
-22.75
-18.58
-14.39
-10.57
-7.48
-5.40
-4.37
-4.28
-4.80
-5.53
-6.11
-6.29
-5.95
-5.04
-3.61
-1.69
0.66
3.42
6.66
10.43
14.79
19.67
24.86
30.12
35.24
40.11
44.71
48.96
52.65
55.43
56.99
57.17
56.06
53.92
50.97
47.37
43.13
38.30
33.11
28.00
23.51
20.06
17.77
16.42
15.62
15.05
14.62
14.46
14.71
15.34
16.19
16.91
17.25
17.12
16.59
15.79
14.71
13.24
11.21
8.58
5.52
2.40
-0.39
-2.60
-4.21
-5.41
-6.44
-7.52
-8.77
-10.20
-11.74
-13.31
-14.83
-16.20
-17.37
-18.36
-19.23
-20.05
-20.79
-21.19
-20.87
-19.43
-16.68
-12.87
-8.59
-4.61
-1.51
0.49
1.60
2.22
2.68
3.14
3.58
3.90
4.06
4.13
4.19
4.22
4.08
3.56
2.51
1.04
-0.52
-1.74
-2.27
-2.00
-1.15
-0.14
0.60
0.81
0.50
-0.11
-0.77
-1.34
-1.87
-2.51
-3.42
-4.58
-5.86
-7.03
-7.88
-8.29
-8.23
-7.68
-6.63
-5.13
-3.30
-1.38
0.38
1.77
2.72
3.31
3.68
3.96
4.18
4.33
4.33
4.15
3.82
3.41
3.06
2.87
2.95
3.26
3.67
4.01
4.09
3.85
3.27
2.49
1.56
0.58
-0.39
-1.30
-2.10
-2.78
-3.44
-4.24
-5.37
-6.89
-8.65
-10.25
-11.25
-11.23
-10.07
-7.89
-5.05
-2.00
0.85
3.23
5.03
6.26
7.04
7.50
7.79
8.03
8.24
8.36
8.22
7.62
6.46
4.83
3.03
1.50
0.57
0.32
0.56
0.91
1.08
0.98
0.70
0.42
0.17
-0.11
-0.60
-1.40
-2.45
-3.60
-4.70
-5.71
-6.67
-7.62
-8.51
-9.09
-9.11
-8.34
-6.76
-4.58
-2.16
0.17
2.16
3.76
5.06
6.13
6.99
7.45
7.24
6.23
4.55
2.67
1.20
0.68
1.18
2.34
3.54
4.24
4.21
3.65
2.96
2.48
2.30
2.29
2.23
1.96
1.43
0.68
-0.29
-1.43
-2.69
-3.96
-5.14
-6.10
-6.76
-7.09
-7.07
-6.65
-5.79
-4.55
-3.13
-1.78
-0.68
0.22
1.12
2.30
3.85
5.58
7.15
8.12
8.24
7.53
6.20
4.62
3.16
2.07
1.45
1.22
1.14
1.00
0.64
0.04
-0.66
-1.31
-1.80
-2.13
-2.32
-2.36
-2.21
-1.91
-1.58
-1.44
-1.74
-2.56
-3.80
-5.13
-6.22
-6.81
-6.82
-6.31
-5.45
-4.45
-3.43
-2.47
-1.54
-0.55
0.56
1.85
3.23
4.52
5.54
6.20
6.47
6.39
5.97
5.20
4.12
2.84
1.66
0.84
0.59
0.85
1.40
1.94
2.26
2.31
2.15
1.91
1.62
1.22
0.62
-0.21
-1.17
-2.15
-3.04
-3.85
-4.65
-5.48
-6.30
-6.88
-6.99
-6.45
-5.24
-3.54
-1.61
0.30
2.02
3.41
4.47
5.11
5.29
4.92
3.94
2.39
0.47
-1.46
-3.00
-3.83
-3.86
-3.27
-2.38
-1.50
-0.76
-0.10
0.60
1.32
1.88
2.01
1.55
0.54
-0.76
-2.01
-3.00
-3.70
-4.23
-4.74
-5.33
-5.98
-6.58
-6.99
-7.07
-6.69
-5.72
-4.09
-1.85
0.77
3.37
5.50
6.78
7.07
6.55
5.64
4.86
4.59
4.93
5.63
6.29
6.51
6.11
5.18
4.02
2.91
1.99
1.24
0.60
0.01
-0.54
-1.08
-1.72
-2.58
-3.74
-5.12
-6.46
-7.52
-8.21
-8.60
-8.90
-9.23
-9.54
-9.59
-9.19
-8.33
-7.19
-6.03
-4.97
-3.93
-2.70
-1.16
0.67
2.59
4.35
5.75
6.68
7.10
7.03
6.52
5.69
4.74
3.90
3.34
3.08
3.05
3.04
2.90
2.52
1.91
1.21
0.61
0.32
0.43
0.88
1.45
1.78
1.58
0.76
-0.48
-1.84
-3.05
-4.04
-4.93
-5.91
-7.03
-8.09
-8.75
-8.60
-7.47
-5.46
-2.98
-0.53
1.39
2.50
2.70
2.13
1.07
-0.09
-0.89
-1.01
-0.38
0.77
1.97
2.73
2.76
2.10
1.11
0.23
-0.24
-0.33
-0.30
-0.47
-1.00
-1.81
-2.65
-3.29
-3.61
-3.68
-3.65
-3.71
-3.97
-4.51
-5.37
-6.50
-7.85
-9.21
-10.27
-10.71
-10.31
-9.06
-7.21
-5.18
-3.33
-1.82
-0.58
0.65
2.14
3.94
5.95
7.91
9.67
11.23
12.78
14.55
16.80
19.78
23.86
29.42
36.76
45.76
55.69
65.22
72.79
77.14
77.71
74.82
69.43
62.67
55.47
48.33
41.35
34.42
27.41
20.31
13.23
6.37
-0.08
-5.99
-11.36
-16.25
-20.72
-24.85
-28.73
-32.54
-36.54
-40.96
-45.77
-50.59
-54.67
-57.16
-57.53
-55.83
-52.67
-48.93
-45.30
-42.02
-38.87
-35.42
-31.42
-26.90
-22.23
-17.93
-14.46
-12.09
-10.87
-10.64
-11.10
-11.88
-12.59
-12.94
-12.84
-12.37
-11.72
-11.12
-10.69
-10.45
-10.39
-10.43
-10.49
-10.43
-10.06
-9.17
-7.63
-5.48
-2.90
-0.22
2.18
4.07
5.34
6.02
6.23
6.09
5.77
5.37
4.91
4.34
3.53
2.42
1.12
-0.03
-0.60
-0.32
0.75
2.20
3.44
3.97
3.63
2.54
1.07
-0.46
-1.81
-2.86
-3.58
-3.96
-4.03
-3.88
-3.78
-3.91
-4.44
-5.34
-6.40
-7.34
-7.86
-7.77
-6.97
-5.52
-3.57
-1.39
0.67
2.27
3.20
3.47
3.32
3.08
3.01
3.17
3.45
3.67
3.70
3.57
3.38
3.18
2.89
2.35
1.45
0.25
-1.02
-2.03
-2.60
-2.77
-2.76
-2.83
-3.12
-3.59
-4.10
-4.54
-4.87
-5.15
-5.50
-6.01
-6.72
-7.54
-8.30
-8.72
-8.49
-7.33
-5.22
-2.43
0.53
3.09
4.76
5.37
5.07
4.26
3.42
2.93
3.00
3.62
4.59
5.61
6.48
7.07
7.40
7.51
7.39
7.02
6.41
5.70
5.12
4.85
4.82
4.72
4.11
2.75
0.75
-1.54
-3.76
-5.88
-8.19
-11.19
-15.18
-20.05
-25.34
-30.46
-34.96
-38.64
-41.45
-43.25
-43.72
-42.40
-38.99
-33.59
-26.74
-19.27
-11.98
-5.32
0.75
6.65
12.88
19.63
26.60
33.16
38.70
43.02
46.48
49.86
53.84
58.59
63.55
67.64
69.74
69.19
66.01
60.80
54.26
46.92
39.09
31.07
23.36
16.80
12.24
10.04
9.78
10.26
10.01
7.96
3.98
-1.16
-6.21
-10.05
-12.15
-12.64
-12.05
-10.98
-9.84
-8.89
-8.25
-8.07
-8.49
-9.59
-11.21
-12.94
-14.28
-14.75
-14.19
-12.72
-10.79
-8.90
-7.40
-6.36
-5.62
-4.88
-3.89
-2.56
-0.97
0.74
2.34
3.60
4.31
4.27
3.37
1.68
-0.54
-2.88
-4.95
-6.50
-7.38
-7.60
-7.18
-6.11
-4.42
-2.19
0.30
2.73
4.72
6.04
6.63
6.60
6.14
5.43
4.60
3.73
2.91
2.17
1.60
1.18
0.89
0.66
0.44
0.18
-0.09
-0.32
-0.42
-0.34
-0.06
0.38
0.82
0.98
0.57
-0.64
-2.57
-4.86
-6.98
-8.41
-8.92
-8.66
-8.02
-7.47
-7.21
-7.06
-6.66
-5.64
-3.87
-1.57
0.83
2.86
4.23
4.86
4.88
4.52
4.09
3.78
3.69
3.74
3.78
3.58
3.01
2.08
0.91
-0.29
-1.37
-2.19
-2.65
-2.64
-2.15
-1.24
-0.21
0.52
0.63
0.01
-1.15
-2.42
-3.44
-4.07
-4.39
-4.60
-4.87
-5.19
-5.45
-5.54
-5.39
-5.03
-4.47
-3.69
-2.65
-1.41
-0.10
1.11
2.05
2.74
3.27
3.73
4.15
4.41
4.32
3.77
2.76
1.49
0.36
-0.22
-0.04
0.85
2.02
2.89
2.95
2.10
0.64
-0.79
-1.64
-1.66
-1.01
-0.12
0.54
0.74
0.51
0.06
-0.44
-0.92
-1.45
-2.09
-2.82
-3.45
-3.72
-3.34
-2.19
-0.36
1.82
3.94
5.61
6.70
7.27
7.53
7.58
7.43
7.04
6.52
6.12
6.08
6.47
7.06
7.41
7.13
6.21
5.00
4.02
3.52
3.34
2.94
1.72
-0.58
-3.71
-7.09
-10.10
-12.37
-13.97
-15.16
-16.22
-17.37
-18.71
-20.38
-22.61
-25.65
-29.62
-34.26
-38.98
-42.96
-45.43
-46.02
-44.84
-42.53
-39.89
-37.61
-36.02
-34.96
-33.98
-32.59
-30.52
-27.89
-25.06
-22.47
-20.34
-18.57
-16.82
-14.76
-12.28
-9.47
-6.53
-3.48
-0.05
4.29
10.10
17.68
26.79
36.74
46.48
54.97
61.35
65.10
66.09
64.51
60.82
55.66
49.78
43.92
38.68
34.36
30.96
28.22
25.73
23.16
20.26
16.92
13.21
9.27
5.33
1.59
-1.76
-4.66
-7.12
-9.19
-10.86
-12.01
-12.59
-12.62
-12.46
-12.60
-13.52
-15.46
-18.23
-21.37
-24.20
-26.19
-27.09
-27.05
-26.61
-26.61
-27.92
-31.07
-35.97
-41.57
-45.98
-47.00
-42.91
-33.26
-19.19
-3.10
12.10
23.75
30.13
30.79
26.52
19.20
11.31
5.31
2.99
5.05
10.87
18.77
26.59
32.11
33.60
30.07
21.58
9.28
-4.55
-16.88
-24.66
-25.85
-20.21
-9.34
3.69
15.47
23.42
26.36
24.83
20.70
16.29
13.65
13.94
17.20
22.63
29.15
35.88
42.51
49.29
56.73
65.17
74.59
84.54
94.20
102.89
110.22
116.13
120.66
123.93
125.88
126.43
125.20
121.19
112.44
96.11
69.54
31.99
-13.78
-61.38
-102.28
-128.87
-137.28
-128.67
-108.38
-83.51
-60.37
-42.82
-32.12
-27.57
-27.44
-29.54
-31.66
-31.91
-29.24
-23.70
-16.56
-9.65
-4.67
-2.62
-3.73
-7.60
-13.38
-19.90
-25.86
-29.93
-31.28
-29.91
-26.77
-23.47
-21.44
-21.56
-23.61
-26.60
-29.23
-30.38
-29.64
-27.33
-24.29
-21.50
-19.80
-19.57
-20.71
-22.76
-25.04
-26.91
-27.90
-27.79
-26.64
-24.82
-22.86
-21.30
-20.43
-20.20
-20.19
-19.92
-19.19
-18.16
-17.27
-16.87
-16.98
-17.33
-17.42
-16.93
-15.87
-14.49
-13.09
-11.87
-10.82
-9.89
-9.08
-8.38
-7.75
-7.15
-6.51
-5.91
-5.61
-5.85
-6.80
-8.31
-9.96
-11.16
-11.40
-10.46
-8.46
-5.84
-3.12
-0.72
1.15
2.54
3.63
4.58
5.53
6.50
7.41
8.21
8.79
9.15
9.38
9.59
9.91
10.27
10.44
10.07
8.96
7.17
5.08
3.22
1.97
1.38
1.11
0.75
0.00
-1.09
-2.26
-3.22
-3.88
-4.38
-4.84
-5.25
-5.39
-5.09
-4.42
-3.76
-3.66
-4.41
-5.77
-7.08
-7.46
-6.40
-4.01
-1.01
1.69
3.42
4.09
4.13
4.10
4.42
5.14
6.08
6.97
7.60
7.78
7.41
6.44
5.02
3.42
2.09
1.38
1.33
1.63
1.74
1.18
-0.21
-2.15
-4.05
-5.37
-5.92
-5.89
-5.67
-5.59
-5.79
-6.21
-6.72
-7.32
-8.14
-9.28
-10.62
-11.73
-12.00
-10.89
-8.27
-4.49
-0.33
3.40
6.09
7.58
8.13
8.18
8.11
8.06
7.96
7.63
7.03
6.30
5.76
5.59
5.75
5.97
5.92
5.40
4.53
3.59
2.84
2.37
2.11
1.96
1.91
1.98
2.18
2.42
2.48
2.11
1.26
0.03
-1.40
-2.88
-4.36
-5.82
-7.14
-8.06
-8.28
-7.62
-6.08
-3.91
-1.47
0.92
3.02
4.65
5.71
6.15
5.94
5.15
4.01
2.81
1.95
1.76
2.35
3.56
4.97
6.10
6.54
6.23
5.37
4.24
3.12
2.10
1.22
0.49
0.04
-0.11
-0.06
-0.12
-0.68
-1.93
-3.80
-5.95
-8.00
-9.64
-10.73
-11.13
-10.67
-9.20
-6.73
-3.55
-0.20
2.69
4.68
5.62
5.71
5.39
5.26
5.79
7.18
9.25
11.45
13.04
13.49
12.62
10.78
8.57
6.64
5.34
4.73
4.65
4.88
5.17
5.27
5.05
4.43
3.49
2.41
1.32
0.25
-0.90
-2.18
-3.45
-4.46
-5.02
-5.13
-5.01
-4.87
-4.79
-4.56
-3.90
-2.72
-1.17
0.36
1.52
2.25
2.77
3.36
4.09
4.79
5.14
4.96
4.34
3.66
3.31
3.51
4.25
5.30
6.31
6.88
6.67
5.47
3.42
1.03
-0.86
-1.47
-0.56
1.45
3.49
4.43
3.64
1.33
-1.65
-4.34
-6.22
-7.45
-8.57
-10.13
-12.10
-13.90
-14.73
-14.04
-11.86
-8.78
-5.71
-3.42
-2.31
-2.19
-2.63
-3.12
-3.46
-3.76
-4.23
-5.08
-6.19
-7.28
-8.03
-8.27
-8.11
-7.82
-7.68
-7.85
-8.35
-9.11
-10.05
-10.99
-11.65
-11.60
-10.44
-8.01
-4.59
-0.88
2.44
4.80
6.15
6.91
7.70
9.15
11.54
14.79
18.48
22.14
25.32
27.69
29.04
29.20
28.17
26.10
23.34
20.37
17.67
15.54
14.00
12.85
11.80
10.63
9.22
7.58
5.73
3.75
1.72
-0.08
-1.25
-1.48
-0.65
0.84
2.26
2.79
1.96
-0.09
-2.64
-4.70
-5.62
-5.33
-4.40
-3.67
-3.82
-5.04
-6.96
-9.04
-10.71
-11.68
-11.83
-11.11
-9.50
-7.03
-3.95
-0.68
2.09
3.78
4.08
3.11
1.47
-0.01
-0.64
-0.07
1.52
3.59
5.49
6.62
6.65
5.55
3.43
0.69
-2.21
-4.74
-6.36
-6.73
-5.87
-4.16
-2.21
-0.59
0.35
0.57
0.26
-0.40
-1.27
-2.31
-3.41
-4.47
-5.35
-6.01
-6.55
-7.11
-7.78
-8.36
-8.50
-7.70
-5.80
-3.05
-0.09
2.30
3.61
3.78
3.23
2.49
1.99
1.84
1.91
2.03
2.12
2.25
2.56
3.16
3.96
4.75
5.28
5.41
5.07
4.35
3.47
2.61
1.90
1.35
0.83
0.21
-0.55
-1.31
-1.83
-1.91
-1.51
-0.86
-0.36
-0.32
-0.84
-1.76
-2.72
-3.39
-3.59
-3.35
-2.81
-2.21
-1.61
-1.06
-0.47
0.23
1.06
1.94
2.61
2.89
2.68
2.00
1.09
0.15
-0.60
-1.08
-1.37
-1.52
-1.57
-1.36
-0.68
0.61
2.39
4.23
5.54
5.81
4.92
3.13
1.16
-0.33
-1.00
-1.06
-1.14
-1.96
-3.79
-6.31
-8.69
-9.94
-9.55
-7.65
-5.06
-2.79
-1.51
-1.23
-1.33
-1.00
0.30
2.43
4.70
6.23
6.51
5.61
4.15
2.85
2.16
1.98
1.87
1.43
0.65
-0.10
-0.21
0.65
2.25
3.86
4.60
3.93
2.02
-0.35
-2.21
-2.98
-2.78
-2.24
-2.18
-3.09
-4.91
-7.16
-9.33
-11.08
-12.40
-13.47
-14.34
-14.94
-15.04
-14.38
-12.79
-10.34
-7.29
-4.07
-1.17
1.01
2.27
2.69
2.57
2.26
1.92
1.51
0.82
-0.29
-1.72
-3.25
-4.53
-5.41
-5.92
-6.19
-6.40
-6.71
-7.18
-7.84
-8.75
-9.95
-11.56
-13.73
-16.49
-19.71
-23.06
-26.13
-28.65
-30.61
-32.29
-34.19
-36.58
-39.42
-42.28
-44.51
-45.61
-45.41
-44.03
-41.71
-38.61
-34.65
-29.65
-23.66
-16.96
-10.09
-3.64
2.01
6.94
11.46
16.09
21.22
26.98
33.20
39.49
45.38
50.43
54.37
57.18
59.04
60.25
61.07
61.57
61.61
60.98
59.56
57.42
54.83
52.01
49.04
45.83
42.32
38.53
34.63
30.86
27.38
24.15
21.13
18.27
15.62
13.28
11.23
9.25
6.92
3.81
-0.22
-4.82
-9.34
-13.11
-15.65
-16.68
-16.17
-14.16
-11.02
-7.51
-4.77
-3.85
-5.01
-7.26
-8.66
-7.28
-2.40
4.84
11.93
16.37
17.24
15.69
14.42
16.05
21.66
30.22
39.35
46.51
50.11
49.60
45.17
37.02
25.31
10.52
-6.08
-22.30
-35.68
-44.27
-47.56
-46.49
-42.86
-38.39
-34.08
-30.11
-26.29
-22.60
-19.55
-18.03
-18.88
-22.32
-27.81
-34.12
-39.69
-43.22
-44.08
-42.35
-38.62
-33.59
-27.83
-21.71
-15.55
-9.75
-4.78
-0.98
1.75
3.90
6.19
9.20
13.00
17.25
21.47
25.22
28.26
30.48
31.72
31.78
30.51
27.95
24.47
20.69
17.18
14.30
12.01
10.03
7.98
5.59
2.65
-0.91
-5.10
-9.80
-14.75
-19.54
-23.78
-27.33
-30.35
-33.30
-36.67
-40.73
-45.35
-49.99
-54.03
-57.01
-58.91
-60.36
-62.47
-66.59
-74.00
-85.42
-100.26
-116.36
-129.74
-135.32
-128.14
-104.99
-65.96
-15.00
40.86
93.39
135.42
162.54
173.63
170.35
155.97
134.33
109.13
83.62
60.31
40.77
25.43
13.81
5.03
-1.43
-5.20
-5.03
0.51
12.10
28.81
47.99
65.79
78.21
82.28
76.94
63.43
44.74
24.44
5.55
-10.33
-23.18
-34.02
-44.22
-54.76
-65.91
-77.15
-86.93
-92.57
-90.77
-78.95
-57.02
-28.63
-0.70
18.91
24.66
15.81
-3.45
-26.34
-46.79
-62.08
-72.90
-81.35
-88.34
-92.22
-89.46
-77.23
-55.82
-29.30
-4.02
14.29
23.38
25.60
26.84
33.61
49.74
74.44
102.69
127.71
144.13
150.28
148.20
141.90
134.74
127.83
120.05
109.61
95.83
80.01
64.99
53.67
47.60
46.43
48.43
51.48
54.05
55.56
56.09
55.80
54.63
52.19
48.21
42.87
36.89
31.23
26.59
23.00
19.75
15.69
9.79
1.59
-8.67
-20.15
-31.66
-41.77
-48.89
-51.34
-47.71
-37.51
-22.04
-4.61
9.67
15.02
6.59
-17.80
-56.56
-104.22
-152.73
-193.35
-218.98
-225.88
-214.31
-188.27
-154.11
-118.59
-87.20
-63.15
-47.12
-38.03
-34.02
-33.26
-34.42
-36.59
-39.04
-40.92
-41.33
-39.51
-35.07
-28.00
-18.52
-6.89
6.55
21.21
36.08
49.67
60.49
67.36
69.90
68.77
65.41
61.58
58.78
57.58
57.55
57.45
55.83
51.75
45.19
36.97
28.44
20.73
14.32
8.89
3.65
-2.16
-8.86
-16.07
-22.95
-28.48
-31.94
-32.91
-31.27
-27.19
-21.26
-14.47
-8.18
-3.64
-1.31
-0.46
0.54
3.39
8.66
15.14
20.29
21.41
17.21
8.56
-1.93
-11.18
-17.18
-19.73
-20.04
-19.71
-19.63
-19.65
-18.97
-16.92
-13.66
-10.15
-7.67
-7.07
-8.41
-10.93
-13.48
-15.02
-15.08
-13.79
-11.71
-9.51
-7.65
-6.16
-4.65
-2.45
1.07
6.17
12.74
20.30
28.18
35.75
42.37
47.41
50.08
49.47
44.62
34.89
20.14
1.00
-21.13
-44.24
-66.03
-84.31
-97.44
-104.55
-105.64
-101.38
-92.81
-81.07
-67.06
-51.43
-34.60
-16.96
0.90
18.18
33.83
46.94
57.04
64.26
69.28
72.88
75.62
77.56
78.32
77.45
74.79
70.69
65.88
61.10
56.78
52.93
49.34
45.84
42.46
39.45
37.03
35.23
33.83
32.45
30.80
28.72
26.31
23.77
21.32
19.11
17.17
15.51
14.02
12.56
10.96
9.09
7.06
5.15
3.77
3.18
3.24
3.28
2.15
-1.46
-8.53
-19.28
-33.05
-48.40
-63.56
-76.87
-87.06
-93.34
-95.41
-93.45
-88.00
-80.02
-70.68
-61.15
-52.33
-44.69
-38.36
-33.31
-29.49
-26.81
-25.03
-23.65
-21.97
-19.46
-16.07
-12.33
-9.09
-7.19
-6.95
-8.08
-10.01
-12.17
-14.23
-15.99
-17.24
-17.59
-16.77
-14.83
-12.28
-9.84
-7.95
-6.52
-4.86
-2.28
1.39
5.43
8.52
9.50
7.97
4.58
0.66
-2.37
-3.73
-3.32
-1.54
1.10
4.16
7.43
10.83
14.25
17.54
20.53
23.08
25.16
26.77
27.96
28.74
29.15
29.20
28.93
28.27
27.16
25.57
23.57
21.42
19.50
18.13
17.42
17.18
17.08
16.76
16.01
14.77
13.13
11.21
9.13
7.05
5.05
3.21
1.50
-0.19
-2.00
-4.05
-6.29
-8.62
-10.83
-12.74
-14.07
-14.48
-13.65
-11.39
-7.87
-3.65
0.51
3.94
6.36
7.98
9.27
10.64
12.14
13.51
14.35
14.37
13.61
12.36
11.06
10.03
9.38
9.04
8.87
8.77
8.75
8.79
8.87
8.75
8.24
7.20
5.69
3.94
2.25
0.84
-0.23
-1.04
-1.80
-2.75
-4.13
-6.08
-8.50
-11.08
-13.26
-14.45
-14.22
-12.49
-9.56
-5.95
-2.15
1.55
5.02
8.21
10.99
13.08
14.23
14.34
13.55
12.25
10.93
9.96
9.53
9.62
10.01
10.48
10.79
10.76
10.30
9.40
8.14
6.66
5.13
3.64
2.25
0.97
-0.18
-1.13
-1.81
-2.24
-2.56
-3.03
-3.94
-5.44
-7.46
-9.70
-11.71
-13.10
-13.54
-12.83
-10.94
-8.00
-4.25
-0.11
3.99
7.71
10.75
13.03
14.56
15.42
15.67
15.31
14.34
12.92
11.30
9.81
8.73
8.16
8.04
8.23
8.61
9.11
9.67
10.20
10.45
10.21
9.38
8.09
6.69
5.59
4.97
4.78
4.72
4.51
4.03
3.39
2.75
2.28
2.03
2.08
2.55
3.69
5.68
8.51
11.88
15.16
17.69
18.88
18.51
16.75
14.07
11.03
8.14
5.72
3.83
2.43
1.31
0.18
-1.21
-3.06
-5.47
-8.33
-11.34
-14.07
-16.10
-17.23
-17.58
-17.57
-17.76
-18.47
-19.67
-20.94
-21.76
-21.73
-20.76
-19.09
-17.08
-15.02
-12.94
-10.71
-8.14
-5.10
-1.62
2.15
5.95
9.52
12.57
14.94
16.67
17.98
19.21
20.67
22.48
24.39
25.93
26.57
25.98
24.27
21.90
19.50
17.61
16.38
15.59
14.78
13.48
11.44
8.71
5.50
2.09
-1.33
-4.69
-8.05
-11.54
-15.31
-19.53
-24.28
-29.56
-35.20
-40.86
-46.06
-50.33
-53.19
-54.29
-53.54
-51.09
-47.36
-42.97
-38.49
-34.29
-30.40
-26.57
-22.47
-17.97
-13.25
-8.81
-5.20
-2.79
-1.55
-1.06
-0.72
-0.09
0.97
2.22
3.29
3.88
3.97
3.75
3.45
3.10
2.57
1.83
1.21
1.31
2.70
5.45
8.81
11.49
12.22
10.45
6.63
1.98
-2.10
-4.67
-5.44
-4.77
-3.13
-0.84
1.98
5.32
8.99
12.63
15.80
18.22
19.84
20.89
21.74
22.64
23.62
24.38
24.53
23.81
22.28
20.30
18.38
16.90
15.93
15.33
14.86
14.35
13.76
13.14
12.53
11.90
11.17
10.20
8.85
7.00
4.64
1.91
-0.84
-3.14
-4.55
-4.93
-4.54
-3.99
-4.01
-5.08
-7.27
-10.21
-13.19
-15.49
-16.55
-16.12
-14.30
-11.51
-8.27
-5.01
-1.98
0.76
3.25
5.50
7.43
8.89
9.84
10.39
10.71
10.99
11.18
11.12
10.55
9.42
7.91
6.42
5.40
5.10
5.48
6.28
7.14
7.76
7.93
7.57
6.69
5.37
3.83
2.37
1.26
0.64
0.38
0.22
-0.17
-0.96
-2.16
-3.61
-5.05
-6.31
-7.25
-7.96
-8.60
-9.38
-10.48
-11.85
-13.22
-14.12
-14.10
-12.89
-10.54
-7.40
-4.01
-0.83
1.90
4.10
5.80
7.09
8.04
8.68
9.10
9.36
9.53
9.63
9.65
9.57
9.33
8.92
8.31
7.52
6.67
5.91
5.40
5.22
5.31
5.50
5.62
5.54
5.29
4.97
4.69
4.44
4.08
3.43
2.36
0.86
-0.97
-2.94
-4.88
-6.60
-7.91
-8.78
-9.29
-9.67
-10.24
-11.23
-12.61
-14.07
-15.12
-15.36
-14.66
-13.22
-11.41
-9.55
-7.73
-5.80
-3.59
-1.07
1.60
4.06
5.98
7.26
8.00
8.41
8.70
8.90
8.94
8.77
8.38
7.90
7.50
7.27
7.19
7.13
6.97
6.70
6.43
6.26
6.28
6.42
6.54
6.46
6.05
5.27
4.20
3.02
1.91
1.01
0.30
-0.31
-0.96
-1.76
-2.77
-3.96
-5.21
-6.42
-7.46
-8.31
-9.02
-9.69
-10.41
-11.21
-12.02
-12.79
-13.41
-13.81
-13.87
-13.45
-12.37
-10.47
-7.72
-4.34
-0.76
2.49
4.98
6.55
7.31
7.54
7.49
7.34
7.13
6.81
6.35
5.76
5.09
4.46
3.99
3.78
3.85
4.17
4.66
5.20
5.71
6.11
6.37
6.40
6.17
5.55
4.47
2.94
1.08
-0.90
-2.81
-4.50
-5.93
-7.02
-7.77
-8.13
-8.11
-7.76
-7.28
-6.91
-6.88
-7.35
-8.25
-9.35
-10.24
-10.53
-10.04
-8.76
-6.91
-4.73
-2.48
-0.28
1.79
3.66
5.21
6.21
6.47
5.94
4.80
3.38
2.13
1.33
1.17
1.58
2.34
3.25
4.13
4.84
5.24
5.20
4.62
3.60
2.41
1.44
1.05
1.26
1.83
2.28
2.14
1.21
-0.39
-2.28
-4.07
-5.47
-6.48
-7.25
-7.97
-8.70
-9.43
-9.95
-10.10
-9.76
-8.88
-7.60
-6.08
-4.45
-2.78
-1.12
0.53
2.07
3.39
4.42
5.10
5.48
5.62
5.54
5.15
4.32
2.96
1.23
-0.50
-1.73
-2.11
-1.62
-0.58
0.52
1.32
1.71
1.84
1.93
2.05
2.05
1.72
0.93
-0.20
-1.41
-2.46
-3.31
-4.05
-4.89
-5.87
-6.86
-7.67
-8.16
-8.35
-8.35
-8.28
-8.05
-7.52
-6.48
-4.90
-2.93
-0.90
0.88
2.27
3.32
4.18
4.99
5.74
6.33
6.57
6.26
5.36
3.98
2.35
0.85
-0.22
-0.64
-0.44
0.12
0.66
0.87
0.61
-0.04
-0.81
-1.54
-2.21
-2.97
-4.00
-5.32
-6.76
-7.97
-8.64
-8.68
-8.25
-7.68
-7.25
-7.01
-6.71
-6.04
-4.82
-3.13
-1.35
0.07
0.84
1.02
0.92
0.97
1.46
2.36
3.38
4.14
4.33
3.94
3.14
2.20
1.36
0.66
0.04
-0.60
-1.24
-1.74
-1.91
-1.66
-1.10
-0.55
-0.35
-0.65
-1.41
-2.35
-3.20
-3.81
-4.26
-4.75
-5.51
-6.61
-7.95
-9.23
-10.06
-10.14
-9.35
-7.81
-5.87
-3.89
-2.13
-0.63
0.74
2.13
3.55
4.84
5.76
6.08
5.77
4.99
4.03
3.16
2.54
2.19
2.06
2.04
2.05
2.03
1.97
1.90
1.83
1.70
1.44
1.01
0.42
-0.21
-0.69
-0.96
-1.06
-1.21
-1.72
-2.82
-4.50
-6.54
-8.60
-10.32
-11.48
-12.09
-12.18
-11.81
-10.94
-9.45
-7.28
-4.47
-1.37
1.59
3.94
5.46
6.26
6.71
7.17
7.78
8.36
8.49
7.82
6.35
4.45
2.74
1.77
1.74
2.46
3.54
4.57
5.31
5.73
5.82
5.60
5.04
4.20
3.18
2.11
1.06
-0.00
-1.10
-2.28
-3.45
-4.48
-5.29
-5.90
-6.46
-7.13
-7.99
-9.01
-10.08
-10.97
-11.53
-11.58
-10.89
-9.31
-6.90
-3.94
-0.98
1.43
3.00
3.83
4.32
4.97
6.01
7.25
8.14
8.18
7.18
5.52
3.92
3.10
3.38
4.53
5.93
6.90
7.12
6.67
5.92
5.21
4.66
4.20
3.60
2.83
2.02
1.41
1.12
1.09
1.09
0.82
0.14
-0.91
-2.14
-3.33
-4.35
-5.24
-6.11
-7.04
-8.05
-9.03
-9.88
-10.47
-10.78
-10.81
-10.49
-9.69
-8.25
-6.13
-3.48
-0.73
1.64
3.24
3.96
4.00
3.78
3.68
3.90
4.41
5.00
5.43
5.59
5.49
5.31
5.25
5.42
5.78
6.16
6.38
6.35
6.10
5.84
5.69
5.62
5.41
4.75
3.42
1.49
-0.63
-2.42
-3.44
-3.60
-3.21
-2.79
-2.81
-3.45
-4.54
-5.71
-6.62
-7.21
-7.63
-8.13
-8.77
-9.36
-9.56
-9.05
-7.80
-6.01
-4.00
-2.07
-0.27
1.47
3.28
5.14
6.88
8.20
8.83
8.63
7.72
6.39
5.06
4.08
3.65
3.69
3.91
4.02
3.80
3.27
2.65
2.20
2.08
2.27
2.52
2.53
2.09
1.23
0.18
-0.68
-1.10
-1.06
-0.80
-0.73
-1.21
-2.34
-3.91
-5.51
-6.82
-7.75
-8.42
-8.99
-9.47
-9.66
-9.27
-8.14
-6.41
-4.47
-2.79
-1.67
-1.05
-0.61
0.08
1.33
3.10
5.14
7.00
8.22
8.54
7.94
6.65
5.02
3.46
2.24
1.46
1.08
1.01
1.17
1.49
1.93
2.38
2.65
2.51
1.83
0.68
-0.68
-1.90
-2.70
-3.02
-3.00
-2.85
-2.79
-2.96
-3.43
-4.28
-5.57
-7.26
-9.15
-10.80
-11.75
-11.63
-10.40
-8.32
-5.89
-3.57
-1.67
-0.24
0.85
1.82
2.88
4.14
5.60
7.13
8.55
9.59
10.00
9.63
8.49
6.78
4.83
3.11
1.99
1.69
2.20
3.16
4.10
4.49
4.00
2.62
0.66
-1.34
-2.89
-3.68
-3.78
-3.50
-3.29
-3.47
-4.15
-5.19
-6.37
-7.45
-8.29
-8.85
-9.19
-9.32
-9.17
-8.60
-7.49
-5.79
-3.64
-1.24
1.11
3.16
4.75
5.82
6.32
6.33
5.96
5.36
4.75
4.26
3.92
3.63
3.25
2.75
2.27
1.99
2.02
2.26
2.43
2.31
1.86
1.30
0.86
0.62
0.38
-0.10
-0.89
-1.83
-2.58
-2.94
-3.05
-3.35
-4.25
-5.84
-7.77
-9.44
-10.38
-10.39
-9.61
-8.33
-6.77
-4.95
-2.83
-0.44
2.03
4.27
5.98
7.05
7.52
7.63
7.62
7.63
7.53
7.10
6.13
4.60
2.81
1.30
0.52
0.65
1.43
2.33
2.88
2.86
2.35
1.60
0.79
-0.02
-0.88
-1.79
-2.62
-3.24
-3.65
-4.08
-4.86
-6.24
-8.21
-10.40
-12.22
-13.12
-12.77
-11.23
-8.88
-6.21
-3.68
-1.47
0.43
2.21
4.05
5.96
7.73
9.05
9.69
9.59
8.95
8.08
7.23
6.48
5.72
4.81
3.76
2.75
2.07
1.89
2.12
2.40
2.29
1.52
0.21
-1.22
-2.33
-2.90
-3.12
-3.41
-4.19
-5.61
-7.46
-9.28
-10.58
-11.09
-10.75
-9.68
-8.03
-5.99
-3.74
-1.49
0.56
2.29
3.68
4.86
5.92
6.93
7.76
8.20
7.97
6.95
5.31
3.50
2.10
1.57
2.06
3.30
4.71
5.65
5.75
4.99
3.67
2.24
1.02
0.13
-0.47
-0.91
-1.32
-1.82
-2.51
-3.48
-4.75
-6.30
-7.91
-9.28
-10.10
-10.14
-9.32
-7.72
-5.54
-3.03
-0.46
1.97
4.17
6.07
7.57
8.48
8.57
7.74
6.12
4.18
2.51
1.61
1.64
2.42
3.50
4.51
5.26
5.76
6.10
6.25
6.03
5.27
3.98
2.34
0.72
-0.55
-1.42
-2.01
-2.60
-3.39
-4.48
-5.78
-7.16
-8.46
-9.51
-10.13
-10.12
-9.38
-7.91
-5.90
-3.62
-1.27
0.96
3.03
4.87
6.48
7.74
8.53
8.78
8.41
7.47
6.08
4.48
2.96
1.82
1.27
1.38
2.07
3.10
4.23
5.28
6.11
6.63
6.81
6.62
6.10
5.32
4.38
3.41
2.46
1.50
0.40
-0.91
-2.36
-3.81
-5.07
-6.09
-6.98
-7.98
-9.24
-10.72
-12.04
-12.72
-12.37
-10.89
-8.46
-5.52
-2.46
0.42
2.94
4.89
6.09
6.42
5.95
5.01
4.06
3.55
3.65
4.27
5.05
5.63
5.79
5.52
4.99
4.40
3.95
3.73
3.70
3.75
3.68
3.32
2.60
1.58
0.48
-0.39
-0.87
-0.93
-0.72
-0.50
-0.55
-1.07
-2.12
-3.64
-5.49
-7.42
-9.08
-10.12
-10.24
-9.35
-7.54
-5.13
-2.52
-0.05
2.03
3.67
4.93
5.93
6.70
7.18
7.29
6.97
6.32
5.60
5.10
5.00
5.21
5.50
5.56
5.29
4.81
4.40
4.27
4.40
4.55
4.37
3.67
2.48
1.00
-0.48
-1.72
-2.60
-3.12
-3.38
-3.54
-3.79
-4.31
-5.24
-6.54
-7.99
-9.23
-9.87
-9.67
-8.66
-7.12
-5.47
-4.01
-2.84
-1.77
-0.50
1.21
3.30
5.45
7.20
8.15
8.26
7.73
6.92
6.10
5.36
4.57
3.65
2.60
1.60
0.87
0.50
0.44
0.44
0.28
-0.13
-0.72
-1.27
-1.55
-1.46
-1.11
-0.72
-0.54
-0.71
-1.16
-1.72
-2.28
-2.88
-3.68
-4.89
-6.56
-8.41
-9.92
-10.51
-9.85
-7.99
-5.41
-2.67
-0.23
1.72
3.29
4.68
5.97
7.01
7.57
7.38
6.48
5.14
3.80
2.89
2.54
2.66
2.90
3.02
2.85
2.45
1.99
1.68
1.64
1.84
2.13
2.30
2.16
1.62
0.70
-0.54
-1.92
-3.31
-4.56
-5.57
-6.30
-6.74
-6.94
-6.96
-6.89
-6.83
-6.77
-6.68
-6.45
-5.99
-5.21
-4.11
-2.72
-1.09
0.62
2.30
3.78
4.90
5.59
5.87
5.82
5.60
5.37
5.22
5.21
5.24
5.20
4.97
4.51
3.86
3.11
2.39
1.77
1.33
1.05
0.93
0.88
0.75
0.44
-0.05
-0.66
-1.22
-1.65
-2.04
-2.58
-3.46
-4.72
-6.22
-7.69
-8.87
-9.65
-10.02
-10.01
-9.59
-8.64
-7.04
-4.77
-2.04
0.79
3.33
5.30
6.58
7.22
7.33
6.98
6.29
5.36
4.38
3.53
2.95
2.73
2.81
3.05
3.30
3.46
3.55
3.61
3.67
3.70
3.61
3.30
2.72
1.84
0.68
-0.70
-2.16
-3.52
-4.60
-5.27
-5.53
-5.52
-5.50
-5.72
-6.34
-7.35
-8.52
-9.49
-9.86
-9.34
-7.79
-5.36
-2.37
0.74
3.53
5.65
6.90
7.29
6.95
6.18
5.35
4.86
4.91
5.48
6.25
6.74
6.55
5.53
3.91
2.17
0.83
0.21
0.30
0.84
1.43
1.76
1.65
1.07
0.13
-0.98
-2.06
-2.90
-3.42
-3.66
-3.77
-3.96
-4.36
-5.01
-5.93
-7.08
-8.35
-9.61
-10.57
-10.84
-10.10
-8.16
-5.24
-1.76
1.64
4.43
6.32
7.27
7.49
7.27
6.91
6.54
6.14
5.62
4.92
4.13
3.49
3.29
3.64
4.37
5.12
5.52
5.31
4.52
3.34
1.97
0.50
-1.07
-2.67
-4.17
-5.28
-5.77
-5.63
-5.05
-4.39
-4.00
-4.07
-4.58
-5.43
-6.41
-7.37
-8.12
-8.43
-8.05
-6.79
-4.62
-1.75
1.41
4.39
6.79
8.41
9.22
9.30
8.78
7.77
6.49
5.21
4.19
3.56
3.25
3.04
2.68
2.09
1.35
0.67
0.20
-0.05
-0.20
-0.38
-0.65
-0.95
-1.14
-1.17
-1.10
-1.04
-1.13
-1.44
-2.05
-3.01
-4.39
-6.17
-8.13
-9.92
-11.12
-11.39
-10.62
-8.98
-6.74
-4.24
-1.64
0.96
3.49
5.83
7.71
8.88
9.09
8.38
7.06
5.60
4.45
3.85
3.78
4.01
4.34
4.65
5.03
5.62
6.40
7.20
7.64
7.38
6.33
4.67
2.77
0.93
-0.69
-2.06
-3.23
-4.15
-4.74
-4.99
-5.03
-5.17
-5.73
-6.93
-8.63
-10.43
-11.78
-12.23
-11.62
-10.10
-8.09
-5.95
-3.95
-2.13
-0.39
1.33
2.98
4.33
5.09
5.16
4.74
4.22
4.00
4.22
4.69
5.05
5.04
4.68
4.27
4.19
4.62
5.47
6.42
7.12
7.39
7.22
6.78
6.17
5.45
4.53
3.36
1.94
0.32
-1.31
-2.79
-3.94
-4.73
-5.24
-5.62
-6.08
-6.74
-7.59
-8.46
-9.09
-9.18
-8.57
-7.30
-5.55
-3.60
-1.68
0.08
1.71
3.23
4.64
5.83
6.57
6.74
6.27
5.36
4.32
3.46
2.98
2.85
2.97
3.20
3.52
3.94
4.56
5.30
5.96
6.30
6.07
5.26
4.07
2.82
1.83
1.27
1.09
1.11
1.12
0.95
0.49
-0.34
-1.55
-3.06
-4.67
-6.14
-7.29
-8.06
-8.56
-8.95
-9.28
-9.50
-9.39
-8.76
-7.51
-5.73
-3.65
-1.56
0.26
1.67
2.61
3.14
3.39
3.50
3.63
3.86
4.15
4.43
4.59
4.61
4.58
4.60
4.76
5.08
5.50
5.89
6.13
6.15
5.97
5.60
5.07
4.34
3.34
2.09
0.66
-0.79
-2.03
-2.98
-3.58
-3.90
-4.03
-4.05
-4.05
-4.13
-4.39
-4.95
-5.82
-6.84
-7.71
-8.06
-7.60
-6.30
-4.41
-2.38
-0.64
0.50
1.00
1.09
1.11
1.37
1.98
2.80
3.59
4.09
4.23
4.13
4.03
4.09
4.36
4.68
4.86
4.77
4.42
3.94
3.52
3.31
3.35
3.58
3.85
3.95
3.63
2.74
1.30
-0.49
-2.27
-3.80
-4.94
-5.75
-6.40
-7.01
-7.55
-7.97
-8.19
-8.21
-8.08
-7.83
-7.37
-6.58
-5.34
-3.69
-1.87
-0.21
1.00
1.69
2.02
2.26
2.66
3.31
4.10
4.76
5.04
4.76
3.97
2.90
1.83
1.03
0.69
0.81
1.30
2.00
2.76
3.38
3.71
3.61
3.01
1.98
0.70
-0.54
-1.38
-1.66
-1.45
-1.03
-0.76
-0.92
-1.55
-2.50
-3.55
-4.56
-5.61
-6.81
-8.14
-9.39
-10.16
-10.14
-9.26
-7.73
-5.86
-3.92
-1.99
-0.07
1.77
3.35
4.44
4.97
5.06
5.00
5.02
5.21
5.44
5.49
5.25
4.74
4.11
3.51
3.08
2.83
2.78
2.88
3.04
3.07
2.81
2.18
1.32
0.56
0.21
0.38
0.91
1.37
1.31
0.45
-1.18
-3.31
-5.54
-7.55
-9.10
-10.12
-10.61
-10.59
-10.06
-9.00
-7.44
-5.47
-3.30
-1.17
0.67
2.06
3.01
3.60
3.96
4.18
4.22
4.01
3.51
2.72
1.79
0.90
0.20
-0.22
-0.33
-0.07
0.56
1.53
2.71
3.81
4.52
4.59
3.99
2.88
1.67
0.73
0.30
0.33
0.55
0.64
0.35
-0.29
-1.09
-1.90
-2.68
-3.50
-4.43
-5.42
-6.29
-6.77
-6.69
-6.06
-5.00
-3.69
-2.25
-0.77
0.69
2.06
3.23
4.09
4.58
4.72
4.52
4.01
3.26
2.32
1.35
0.47
-0.15
-0.40
-0.19
0.49
1.53
2.65
3.41
3.47
2.71
1.40
0.07
-0.79
-1.02
-0.80
-0.55
-0.61
-1.03
-1.67
-2.37
-3.13
-4.11
-5.46
-7.13
-8.72
-9.69
-9.62
-8.50
-6.72
-4.89
-3.51
-2.70
-2.22
-1.63
-0.61
0.93
2.77
4.54
5.89
6.60
6.68
6.29
5.67
5.01
4.44
3.99
3.66
3.42
3.26
3.19
3.23
3.36
3.45
3.26
2.58
1.34
-0.25
-1.79
-2.84
-3.16
-2.87
-2.34
-2.04
-2.24
-2.96
-3.95
-4.91
-5.68
-6.24
-6.72
-7.18
-7.57
-7.70
-7.36
-6.38
-4.79
-2.81
-0.74
1.10
2.47
3.34
3.84
4.14
4.39
4.61
4.71
4.59
4.25
3.79
3.35
2.99
2.66
2.17
1.45
0.56
-0.30
-0.89
-1.04
-0.80
-0.39
-0.12
-0.21
-0.67
-1.33
-1.98
-2.46
-2.84
-3.35
-4.26
-5.63
-7.27
-8.79
-9.82
-10.17
-9.88
-9.17
-8.17
-6.93
-5.35
-3.40
-1.21
0.95
2.77
4.10
4.97
5.52
5.89
6.15
6.26
6.21
6.04
5.83
5.60
5.30
4.82
4.12
3.28
2.50
1.99
1.90
2.14
2.52
2.74
2.57
1.92
0.87
-0.41
-1.75
-2.99
-4.04
-4.88
-5.58
-6.24
-6.95
-7.79
-8.74
-9.62
-10.18
-10.12
-9.24
-7.58
-5.31
-2.78
-0.32
1.87
3.65
4.95
5.76
6.10
6.09
5.88
5.65
5.46
5.32
5.11
4.68
3.97
3.07
2.17
1.44
1.00
0.84
0.84
0.85
0.71
0.32
-0.36
-1.26
-2.21
-3.06
-3.65
-3.99
-4.20
-4.45
-4.91
-5.66
-6.65
-7.77
-8.77
-9.45
-9.65
-9.28
-8.32
-6.84
-4.93
-2.74
-0.45
1.70
3.50
4.80
5.56
5.86
5.78
5.42
4.82
4.09
3.43
3.11
3.33
4.06
5.01
5.70
5.81
5.27
4.34
3.44
2.89
2.73
2.82
2.86
2.71
2.36
1.96
1.65
1.47
1.34
1.11
0.69
0.05
-0.81
-1.89
-3.19
-4.76
-6.62
-8.67
-10.68
-12.30
-13.25
-13.34
-12.56
-11.03
-8.93
-6.45
-3.75
-1.03
1.48
3.58
5.15
6.22
6.88
7.27
7.42
7.38
7.22
7.08
7.12
7.40
7.79
8.09
8.14
8.00
7.89
8.04
8.46
8.95
9.19
8.92
8.14
7.07
5.95
4.92
3.93
2.90
1.77
0.54
-0.74
-2.07
-3.45
-4.82
-6.03
-6.93
-7.47
-7.81
-8.25
-9.04
-10.23
-11.62
-12.80
-13.42
-13.26
-12.29
-10.58
-8.29
-5.57
-2.68
0.16
2.73
4.93
6.71
8.07
8.97
9.33
9.15
8.57
7.90
7.45
7.42
7.72
8.04
8.02
7.44
6.44
5.28
4.29
3.64
3.33
3.27
3.40
3.72
4.23
4.80
5.21
5.18
4.54
3.32
1.83
0.43
-0.58
-1.20
-1.66
-2.29
-3.32
-4.75
-6.39
-7.94
-9.18
-10.00
-10.41
-10.38
-9.84
-8.75
-7.04
-4.89
-2.56
-0.39
1.37
2.67
3.66
4.54
5.49
6.48
7.29
7.64
7.35
6.49
5.42
4.60
4.40
4.83
5.62
6.31
6.57
6.38
6.02
5.85
6.07
6.54
6.86
6.63
5.64
4.07
2.29
0.70
-0.54
-1.51
-2.45
-3.48
-4.52
-5.36
-5.87
-6.08
-6.29
-6.83
-7.78
-8.95
-9.89
-10.16
-9.57
-8.17
-6.15
-3.76
-1.11
1.64
4.27
6.45
7.90
8.43
8.13
7.25
6.14
5.04
4.13
3.51
3.15
2.99
2.92
2.88
2.93
3.17
3.72
4.51
5.30
5.81
5.82
5.39
4.70
3.92
3.03
1.84
0.23
-1.67
-3.41
-4.50
-4.73
-4.31
-3.79
-3.78
-4.57
-6.06
-7.88
-9.56
-10.70
-11.06
-10.49
-8.96
-6.62
-3.77
-0.91
1.49
3.13
4.00
4.35
4.49
4.67
4.89
5.03
4.96
4.69
4.35
4.13
4.06
4.08
4.00
3.68
3.15
2.53
2.02
1.78
1.85
2.17
2.65
3.21
3.70
3.92
3.65
2.84
1.60
0.23
-0.91
-1.66
-2.11
-2.53
-3.14
-4.12
-5.37
-6.69
-7.86
-8.71
-9.16
-9.16
-8.60
-7.39
-5.54
-3.24
-0.85
1.21
2.71
3.58
3.96
4.13
4.33
4.71
5.25
5.76
6.00
5.70
4.81
3.49
2.14
1.28
1.26
2.08
3.33
4.34
4.60
3.95
2.75
1.61
1.12
1.46
2.34
3.12
3.18
2.18
0.28
-2.06
-4.30
-6.09
-7.38
-8.37
-9.28
-10.24
-11.13
-11.63
-11.38
-10.22
-8.23
-5.78
-3.32
-1.21
0.43
1.75
2.97
4.27
5.55
6.57
7.04
6.79
5.89
4.63
3.38
2.40
1.82
1.61
1.68
1.96
2.38
2.90
3.40
3.69
3.59
3.03
2.13
1.12
0.29
-0.19
-0.39
-0.52
-0.83
-1.43
-2.22
-2.96
-3.47
-3.82
-4.27
-5.19
-6.78
-8.85
-10.82
-11.92
-11.60
-9.75
-6.83
-3.61
-0.86
1.01
2.08
2.74
3.42
4.30
5.30
6.12
6.48
6.27
5.63
4.77
3.89
3.11
2.45
1.86
1.39
1.10
1.08
1.36
1.82
2.26
2.50
2.45
2.13
1.68
1.21
0.78
0.34
-0.19
-0.88
-1.69
-2.56
-3.42
-4.22
-5.03
-5.94
-7.00
-8.11
-9.08
-9.62
-9.47
-8.47
-6.65
-4.22
-1.49
1.17
3.48
5.20
6.25
6.59
6.27
5.44
4.33
3.23
2.44
2.15
2.37
2.96
3.69
4.29
4.54
4.31
3.60
2.52
1.25
0.05
-0.83
-1.29
-1.40
-1.37
-1.48
-1.87
-2.45
-3.03
-3.36
-3.40
-3.29
-3.31
-3.73
-4.63
-5.93
-7.37
-8.65
-9.47
-9.58
-8.78
-7.01
-4.36
-1.20
1.98
4.64
6.38
7.14
7.09
6.61
6.07
5.72
5.60
5.64
5.63
5.45
5.05
4.47
3.77
3.08
2.49
2.13
2.10
2.35
2.76
3.06
2.99
2.33
1.08
-0.56
-2.30
-3.79
-4.82
-5.33
-5.44
-5.36
-5.30
-5.49
-6.04
-6.93
-8.01
-9.01
-9.64
-9.65
-8.92
-7.47
-5.51
-3.29
-1.09
0.92
2.63
3.99
4.99
5.57
5.79
5.71
5.53
5.41
5.42
5.41
5.13
4.36
3.10
1.71
0.67
0.36
0.82
1.71
2.53
2.92
2.89
2.67
2.58
2.72
2.91
2.87
2.35
1.38
0.17
-1.04
-2.16
-3.27
-4.59
-6.22
-8.06
-9.84
-11.21
-11.84
-11.59
-10.42
-8.44
-5.85
-2.95
-0.10
2.34
4.18
5.37
6.02
6.24
6.08
5.51
4.48
3.11
1.71
0.71
0.45
1.04
2.25
3.58
4.59
5.00
4.82
4.30
3.76
3.39
3.22
3.13
2.97
2.72
2.47
2.33
2.37
2.38
2.11
1.28
-0.19
-2.14
-4.24
-6.10
-7.49
-8.32
-8.71
-8.89
-9.10
-9.42
-9.71
-9.62
-8.75
-6.85
-3.99
-0.64
2.59
5.17
6.89
7.81
8.14
8.07
7.55
6.55
5.04
3.30
1.69
0.62
0.35
0.81
1.74
2.73
3.48
3.87
3.96
3.95
3.96
4.06
4.17
4.08
3.62
2.74
1.57
0.42
-0.56
-1.26
-1.84
-2.47
-3.27
-4.27
-5.35
-6.48
-7.62
-8.68
-9.55
-9.94
-9.65
-8.53
-6.82
-4.94
-3.31
-2.13
-1.33
-0.64
0.12
1.08
2.22
3.52
4.95
6.39
7.60
8.18
7.89
6.74
5.13
3.72
2.99
3.06
3.52
3.88
3.74
3.16
2.55
2.30
2.64
3.41
4.17
4.48
4.08
2.95
1.38
-0.22
-1.48
-2.18
-2.41
-2.49
-2.88
-3.96
-5.82
-8.19
-10.52
-12.22
-12.81
-12.21
-10.53
-8.16
-5.50
-2.96
-0.90
0.51
1.31
1.82
2.46
3.50
4.88
6.18
6.83
6.50
5.27
3.62
2.21
1.42
1.25
1.39
1.54
1.65
1.98
2.78
4.12
5.66
6.78
6.95
5.95
4.11
2.02
0.29
-0.75
-1.12
-1.13
-1.09
-1.32
-1.90
-2.84
-4.15
-5.72
-7.41
-8.96
-10.01
-10.27
-9.60
-8.15
-6.23
-4.17
-2.24
-0.51
0.99
2.24
3.22
3.97
4.52
4.97
5.33
5.48
5.22
4.46
3.36
2.32
1.81
2.10
3.07
4.31
5.29
5.68
5.45
4.86
4.15
3.44
2.59
1.43
-0.07
-1.69
-3.07
-3.92
-4.18
-3.99
-3.70
-3.55
-3.67
-4.08
-4.74
-5.66
-6.78
-7.91
-8.64
-8.50
-7.22
-4.92
-2.09
0.50
2.31
3.14
3.25
3.16
3.26
3.68
4.25
4.66
4.73
4.45
3.98
3.50
3.18
3.08
3.18
3.44
3.74
3.98
4.02
3.79
3.28
2.55
1.75
1.01
0.39
-0.19
-0.76
-1.37
-2.02
-2.70
-3.37
-4.10
-4.96
-6.02
-7.32
-8.79
-10.21
-11.23
-11.46
-10.62
-8.73
-6.05
-3.00
-0.05
2.51
4.53
6.01
7.00
7.51
7.53
7.12
6.43
5.78
5.53
5.85
6.65
7.50
7.85
7.32
5.93
4.10
2.39
1.28
0.90
1.01
1.25
1.31
1.04
0.50
-0.22
-1.09
-2.04
-3.04
-3.99
-4.80
-5.51
-6.23
-7.09
-8.12
-9.19
-9.98
-10.18
-9.59
-8.21
-6.26
-4.12
-2.15
-0.62
0.46
1.24
2.01
2.97
4.21
5.56
6.76
7.50
7.67
7.37
6.87
6.45
6.19
5.97
5.55
4.78
3.74
2.70
2.03
1.93
2.34
2.97
3.47
3.60
3.25
2.48
1.43
0.23
-0.95
-1.94
-2.65
-3.08
-3.38
-3.78
-4.43
-5.47
-6.79
-8.18
-9.32
-9.81
-9.34
-7.77
-5.33
-2.53
-0.06
1.56
2.25
2.30
2.27
2.60
3.42
4.50
5.44
5.90
5.77
5.22
4.48
3.79
3.28
2.93
2.75
2.81
3.25
4.16
5.49
6.91
7.96
8.14
7.25
5.46
3.24
1.20
-0.28
-1.09
-1.48
-1.77
-2.21
-2.91
-3.82
-4.90
-6.15
-7.62
-9.25
-10.87
-12.10
-12.50
-11.77
-9.85
-7.02
-3.77
-0.62
2.01
3.91
5.09
5.68
5.88
5.86
5.69
5.45
5.18
4.95
4.88
5.09
5.59
6.23
6.72
6.72
6.06
4.89
3.62
2.79
2.81
3.70
5.15
6.61
7.51
7.46
6.37
4.40
1.96
-0.44
-2.30
-3.36
-3.67
-3.60
-3.68
-4.31
-5.50
-6.97
-8.26
-9.08
-9.42
-9.46
-9.38
-9.14
-8.47
-7.17
-5.29
-3.17
-1.39
-0.31
0.06
0.11
0.35
1.14
2.38
3.71
4.61
4.84
4.47
3.83
3.35
3.24
3.49
3.91
4.31
4.58
4.72
4.75
4.64
4.35
3.87
3.33
2.92
2.79
2.91
3.03
2.87
2.17
0.96
-0.48
-1.80
-2.71
-3.15
-3.29
-3.48
-4.01
-4.99
-6.30
-7.57
-8.45
-8.68
-8.28
-7.38
-6.19
-4.74
-2.93
-0.65
2.05
4.79
6.97
8.05
7.82
6.56
4.87
3.38
2.48
2.25
2.40
2.60
2.57
2.20
1.57
0.77
-0.06
-0.81
-1.34
-1.52
-1.30
-0.68
0.19
1.13
1.84
2.13
1.85
1.03
-0.17
-1.46
-2.53
-3.24
-3.60
-3.80
-4.11
-4.71
-5.58
-6.44
-7.00
-7.01
-6.48
-5.60
-4.59
-3.59
-2.57
-1.50
-0.36
0.69
1.45
1.85
1.96
2.13
2.67
3.70
5.08
6.42
7.28
7.43
6.85
5.74
4.37
2.93
1.52
0.20
-0.96
-1.81
-2.16
-1.88
-1.07
-0.03
0.72
0.74
-0.13
-1.65
-3.21
-4.21
-4.29
-3.61
-2.69
-2.19
-2.58
-3.91
-5.85
-7.81
-9.22
-9.69
-9.09
-7.51
-5.28
-2.78
-0.36
1.76
3.56
5.07
6.25
6.89
6.69
5.54
3.74
1.95
0.92
1.11
2.34
3.89
4.83
4.60
3.34
1.73
0.64
0.57
1.37
2.41
3.01
2.81
1.94
0.87
-0.05
-0.74
-1.48
-2.59
-4.19
-6.02
-7.56
-8.37
-8.33
-7.73
-7.10
-6.80
-6.86
-6.96
-6.64
-5.65
-4.09
-2.30
-0.76
0.28
0.81
1.07
1.33
1.78
2.43
3.15
3.77
4.18
4.39
4.44
4.33
4.06
3.62
3.08
2.54
2.19
2.18
2.48
2.93
3.26
3.20
2.60
1.47
0.04
-1.38
-2.51
-3.16
-3.32
-3.17
-2.94
-2.87
-3.14
-3.79
-4.73
-5.87
-7.04
-8.07
-8.74
-8.81
-8.09
-6.56
-4.40
-2.00
0.19
1.90
3.12
4.03
4.86
5.73
6.50
6.92
6.79
6.07
4.90
3.57
2.37
1.45
0.89
0.64
0.64
0.77
0.95
1.10
1.18
1.17
1.08
0.86
0.44
-0.21
-1.00
-1.77
-2.31
-2.57
-2.65
-2.78
-3.17
-3.91
-4.85
-5.78
-6.48
-6.82
-6.84
-6.66
-6.38
-6.06
-5.61
-4.86
-3.55
-1.52
1.26
4.46
7.48
9.56
10.11
8.97
6.54
3.63
1.16
-0.17
-0.20
0.83
2.40
3.98
5.26
6.05
6.31
5.93
4.84
3.06
0.89
-1.20
-2.69
-3.30
-3.14
-2.57
-2.05
-1.90
-2.20
-2.88
-3.78
-4.82
-5.93
-7.06
-8.04
-8.61
-8.51
-7.60
-5.95
-3.82
-1.56
0.52
2.17
3.33
4.06
4.54
4.91
5.13
5.12
4.71
3.84
2.63
1.35
0.39
0.05
0.41
1.30
2.33
3.09
3.36
3.19
2.81
2.51
2.32
2.15
1.77
1.02
-0.08
-1.30
-2.42
-3.34
-4.09
-4.85
-5.69
-6.54
-7.23
-7.61
-7.62
-7.32
-6.84
-6.21
-5.36
-4.17
-2.60
-0.76
1.19
3.04
4.61
5.79
6.45
6.43
5.69
4.28
2.54
0.99
0.07
0.00
0.65
1.59
2.34
2.65
2.53
2.21
1.88
1.65
1.42
1.11
0.70
0.31
0.06
-0.00
0.04
-0.11
-0.71
-1.96
-3.82
-5.98
-8.04
-9.53
-10.19
-9.93
-8.91
-7.48
-5.99
-4.68
-3.62
-2.66
-1.61
-0.34
1.15
2.67
3.95
4.80
5.19
5.30
5.38
5.64
6.09
6.49
6.49
5.87
4.68
3.27
2.19
1.81
2.20
2.98
3.64
3.77
3.31
2.56
1.87
1.47
1.22
0.77
-0.22
-1.79
-3.61
-5.17
-6.08
-6.38
-6.43
-6.80
-7.80
-9.34
-10.88
-11.72
-11.37
-9.73
-7.17
-4.26
-1.52
0.76
2.54
3.87
4.79
5.20
5.08
4.54
3.92
3.64
3.91
4.63
5.35
5.62
5.29
4.60
4.04
3.95
4.31
4.72
4.72
4.11
3.07
2.04
1.31
0.86
0.42
-0.25
-1.16
-2.01
-2.49
-2.50
-2.30
-2.35
-3.02
-4.36
-6.10
-7.75
-8.90
-9.33
-9.02
-8.05
-6.52
-4.49
-2.03
0.72
3.49
5.87
7.43
7.87
7.16
5.58
3.69
2.11
1.32
1.49
2.41
3.67
4.85
5.69
6.14
6.27
6.16
5.80
5.14
4.16
3.02
2.00
1.34
1.12
1.15
1.06
0.53
-0.54
-1.93
-3.30
-4.36
-5.04
-5.43
-5.71
-6.02
-6.39
-6.83
-7.31
-7.78
-8.05
-7.86
-6.97
-5.33
-3.13
-0.78
1.36
3.12
4.52
5.73
6.78
7.59
8.03
8.01
7.59
6.90
6.09
5.21
4.28
3.41
2.81
2.70
3.09
3.74
4.26
4.31
3.82
3.04
2.32
1.84
1.52
1.06
0.24
-0.95
-2.18
-3.08
-3.43
-3.36
-3.22
-3.42
-4.21
-5.47
-6.89
-8.11
-8.82
-8.87
-8.18
-6.78
-4.71
-2.09
0.82
3.60
5.79
7.04
7.28
6.77
6.01
5.49
5.48
5.95
6.63
7.20
7.41
7.18
6.57
5.73
4.85
4.11
3.62
3.40
3.41
3.48
3.43
3.17
2.71
2.14
1.57
1.04
0.55
0.07
-0.40
-0.88
-1.41
-2.19
-3.37
-5.01
-6.90
-8.69
-9.97
-10.52
-10.40
-9.80
-8.95
-7.90
-6.56
-4.82
-2.63
-0.11
2.41
4.61
6.26
7.24
7.54
7.18
6.27
4.99
3.66
2.60
2.00
1.90
2.12
2.46
2.78
3.06
3.40
3.81
4.24
4.50
4.40
3.79
2.72
1.36
-0.00
-1.12
-1.85
-2.17
-2.18
-2.07
-2.15
-2.63
-3.69
-5.34
-7.33
-9.26
-10.58
-10.87
-9.98
-8.17
-5.92
-3.70
-1.72
0.11
1.96
3.90
5.67
6.87
7.13
6.47
5.28
4.11
3.39
3.21
3.40
3.62
3.70
3.65
3.56
3.52
3.46
3.28
2.88
2.26
1.60
1.06
0.79
0.73
0.72
0.52
-0.01
-0.88
-2.02
-3.36
-4.89
-6.64
-8.56
-10.40
-11.81
-12.42
-12.13
-11.07
-9.61
-8.07
-6.52
-4.80
-2.66
-0.06
2.73
5.25
7.03
7.89
7.97
7.61
7.11
6.64
6.18
5.67
5.13
4.62
4.27
4.13
4.13
4.13
3.95
3.51
2.81
2.00
1.27
0.78
0.52
0.35
0.04
-0.55
-1.39
-2.31
-3.07
-3.58
-3.97
-4.49
-5.36
-6.58
-7.90
-8.95
-9.41
-9.17
-8.35
-7.13
-5.63
-3.97
-2.23
-0.51
1.02
2.26
3.06
3.44
3.48
3.40
3.43
3.73
4.31
5.02
5.60
5.85
5.75
5.42
5.13
5.00
5.01
4.96
4.55
3.63
2.27
0.73
-0.76
-2.01
-3.02
-3.84
-4.50
-4.95
-5.07
-4.79
-4.25
-3.79
-3.85
-4.77
-6.59
-8.94
-11.19
-12.62
-12.74
-11.45
-9.04
-5.96
-2.76
0.17
2.55
4.30
5.49
6.24
6.71
7.02
7.20
7.13
6.74
6.02
5.11
4.30
3.88
3.98
4.52
5.18
5.60
5.56
5.06
4.30
3.55
3.01
2.72
2.55
2.33
1.86
1.14
0.26
-0.61
-1.38
-2.14
-3.07
-4.48
-6.43
-8.79
-11.14
-12.98
-13.85
-13.60
-12.39
-10.59
-8.57
-6.47
-4.20
-1.58
1.45
4.66
7.55
9.57
10.36
9.93
8.66
7.12
5.83
5.03
4.76
4.84
5.06
5.27
5.31
5.14
4.77
4.29
3.84
3.49
3.22
2.90
2.43
1.69
0.80
-0.07
-0.73
-1.10
-1.23
-1.29
-1.48
-2.00
-3.03
-4.67
-6.89
-9.41
-11.69
-13.01
-12.87
-11.16
-8.29
-5.02
-2.03
0.28
1.98
3.45
5.00
6.64
8.07
8.86
8.75
7.93
6.85
6.04
5.74
5.86
6.07
6.05
5.72
5.21
4.75
4.49
4.38
4.24
3.89
3.26
2.44
1.59
0.83
0.17
-0.42
-0.97
-1.47
-1.95
-2.47
-3.23
-4.41
-6.12
-8.26
-10.46
-12.24
-13.08
-12.65
-10.92
-8.11
-4.66
-1.10
2.14
4.78
6.69
7.89
8.48
8.55
8.16
7.32
6.05
4.49
2.89
1.59
0.88
0.87
1.40
2.17
2.86
3.25
3.34
3.29
3.22
3.17
3.08
2.85
2.44
1.88
1.21
0.44
-0.52
-1.81
-3.44
-5.32
-7.19
-8.83
-10.15
-11.26
-12.29
-13.24
-13.88
-13.75
-12.42
-9.79
-6.15
-2.15
1.42
4.01
5.45
5.97
6.02
5.96
5.97
5.96
5.77
5.29
4.70
4.32
4.53
5.46
6.90
8.31
9.10
8.91
7.80
6.20
4.54
3.09
1.87
0.77
-0.30
-1.22
-1.82
-2.07
-2.11
-2.35
-3.16
-4.71
-6.87
-9.30
-11.49
-13.05
-13.74
-13.53
-12.47
-10.73
-8.49
-5.96
-3.31
-0.73
1.65
3.78
5.62
7.20
8.52
9.51
10.02
9.96
9.27
8.08
6.64
5.26
4.13
3.36
3.04
3.18
3.77
4.67
5.57
6.08
5.85
4.80
3.11
1.19
-0.52
-1.83
-2.73
-3.36
-3.86
-4.24
-4.45
-4.56
-4.87
-5.74
-7.37
-9.59
-11.77
-13.11
-13.09
-11.66
-9.29
-6.65
-4.20
-2.02
0.15
2.52
5.03
7.30
8.79
9.19
8.56
7.32
6.00
4.99
4.46
4.29
4.36
4.47
4.56
4.66
4.83
5.05
5.20
5.02
4.28
2.88
1.00
-0.91
-2.34
-2.99
-2.86
-2.33
-1.90
-2.03
-2.95
-4.61
-6.75
-8.97
-10.93
-12.28
-12.76
-12.22
-10.62
-8.17
-5.22
-2.20
0.53
2.73
4.40
5.62
6.49
7.15
7.61
7.90
8.02
7.96
7.78
7.50
7.10
6.56
5.90
5.18
4.55
4.09
3.81
3.63
3.42
3.14
2.77
2.34
1.87
1.31
0.59
-0.32
-1.31
-2.24
-2.96
-3.54
-4.19
-5.22
-6.83
-8.95
-11.25
-13.27
-14.63
-15.04
-14.44
-12.82
-10.27
-6.96
-3.26
0.34
3.34
5.42
6.57
7.02
7.05
6.91
6.63
6.17
5.56
4.94
4.48
4.33
4.50
4.85
5.26
5.67
6.11
6.72
7.54
8.50
9.39
9.91
9.78
8.85
7.16
4.97
2.64
0.57
-1.00
-2.00
-2.64
-3.33
-4.45
-6.18
-8.45
-10.88
-13.02
-14.38
-14.70
-13.92
-12.16
-9.64
-6.69
-3.66
-0.90
1.33
2.93
4.01
4.83
5.67
6.68
7.79
8.76
9.30
9.22
8.56
7.53
6.43
5.50
4.84
4.42
4.14
3.97
3.96
4.19
4.67
5.31
5.84
5.92
5.36
4.12
2.43
0.65
-0.81
-1.72
-2.10
-2.21
-2.49
-3.32
-4.88
-7.03
-9.36
-11.39
-12.70
-13.11
-12.63
-11.49
-9.86
-7.91
-5.73
-3.38
-0.95
1.46
3.75
5.77
7.46
8.70
9.37
9.38
8.80
7.79
6.72
5.93
5.68
5.96
6.57
7.18
7.49
7.47
7.21
6.96
6.83
6.81
6.73
6.36
5.60
4.45
3.08
1.69
0.47
-0.50
-1.17
-1.57
-1.77
-1.91
-2.18
-2.83
-4.06
-5.97
-8.49
-11.36
-14.16
-16.41
-17.61
-17.41
-15.73
-12.75
-8.90
-4.73
-0.77
2.62
5.30
7.29
8.71
9.61
10.00
9.80
9.02
7.80
6.50
5.51
5.16
5.50
6.28
7.02
7.23
6.63
5.30
3.62
2.12
1.25
1.22
1.95
3.15
4.42
5.34
5.58
4.92
3.38
1.24
-1.04
-3.00
-4.28
-4.86
-5.04
-5.30
-6.11
-7.66
-9.79
-12.11
-14.06
-15.17
-15.07
-13.64
-10.95
-7.36
-3.38
0.42
3.58
5.83
7.18
7.75
7.76
7.47
7.07
6.75
6.61
6.70
6.99
7.36
7.66
7.76
7.60
7.13
6.34
5.28
4.05
2.91
2.15
1.96
2.31
2.92
3.30
3.03
1.93
0.17
-1.80
-3.44
-4.42
-4.73
-4.70
-4.78
-5.33
-6.44
-7.88
-9.33
-10.50
-11.26
-11.59
-11.47
-10.83
-9.51
-7.49
-4.96
-2.31
0.04
1.79
2.92
3.64
4.25
5.01
5.96
6.94
7.68
7.93
7.63
6.87
5.90
4.96
4.29
3.91
3.79
3.81
3.88
3.97
4.04
4.00
3.69
3.01
1.97
0.70
-0.59
-1.73
-2.64
-3.35
-3.88
-4.35
-4.88
-5.65
-6.77
-8.27
-9.96
-11.49
-12.48
-12.69
-12.03
-10.66
-8.76
-6.46
-3.80
-0.86
2.20
5.02
7.19
8.44
8.74
8.36
7.66
6.95
6.33
5.71
4.98
4.06
3.07
2.10
1.30
0.71
0.42
0.49
1.02
2.03
3.29
4.41
4.87
4.41
3.05
1.15
-0.78
-2.31
-3.22
-3.60
-3.64
-3.66
-3.96
-4.81
-6.30
-8.28
-10.33
-11.85
-12.37
-11.65
-9.86
-7.41
-4.78
-2.33
-0.20
1.63
3.21
4.58
5.69
6.44
6.83
6.92
6.81
6.64
6.38
5.94
5.14
3.93
2.43
0.92
-0.24
-0.88
-0.98
-0.76
-0.47
-0.29
-0.28
-0.37
-0.53
-0.80
-1.27
-1.92
-2.66
-3.36
-3.94
-4.52
-5.35
-6.67
-8.48
-10.49
-12.07
-12.61
-11.74
-9.57
-6.67
-3.73
-1.30
0.50
1.91
3.30
4.89
6.59
8.05
8.89
8.94
8.28
7.26
6.20
5.31
4.59
3.85
2.92
1.72
0.39
-0.79
-1.54
-1.75
-1.54
-1.27
-1.37
-2.07
-3.29
-4.63
-5.61
-5.94
-5.69
-5.28
-5.18
-5.72
-6.85
-8.23
-9.45
-10.12
-10.06
-9.30
-7.98
-6.21
-4.09
-1.68
0.88
3.34
5.34
6.56
6.85
6.32
5.38
4.53
4.20
4.43
4.94
5.26
4.99
4.00
2.53
1.07
0.12
-0.01
0.65
1.74
2.70
3.03
2.47
1.12
-0.67
-2.45
-3.86
-4.84
-5.53
-6.13
-6.80
-7.52
-8.18
-8.68
-9.04
-9.29
-9.49
-9.64
-9.60
-9.16
-8.12
-6.33
-3.86
-1.00
1.82
4.18
5.76
6.51
6.60
6.31
5.92
5.65
5.55
5.61
5.70
5.63
5.27
4.55
3.54
2.45
1.59
1.19
1.29
1.74
2.25
2.59
2.51
1.90
0.72
-0.99
-3.07
-5.21
-7.05
-8.24
-8.63
-8.40
-7.95
-7.72
-7.98
-8.63
-9.27
-9.35
-8.50
-6.72
-4.37
-1.95
0.16
1.90
3.50
5.25
7.17
8.92
9.92
9.70
8.20
5.92
3.65
2.17
1.83
2.47
3.52
4.36
4.72
4.70
4.70
4.99
5.58
6.11
6.07
5.12
3.26
0.79
-1.79
-3.99
-5.50
-6.25
-6.40
-6.25
-6.18
-6.55
-7.45
-8.74
-9.99
-10.68
-10.39
-9.02
-6.78
-4.12
-1.53
0.64
2.24
3.38
4.27
5.11
5.99
6.81
7.39
7.55
7.31
6.79
6.26
5.88
5.67
5.49
5.19
4.76
4.34
4.19
4.44
5.05
5.76
6.21
6.18
5.57
4.47
2.97
1.22
-0.69
-2.62
-4.35
-5.65
-6.37
-6.53
-6.37
-6.32
-6.69
-7.58
-8.81
-9.96
-10.60
-10.42
-9.32
-7.44
-5.05
-2.45
0.04
2.23
3.96
5.19
5.90
6.15
6.02
5.70
5.43
5.44
5.84
6.59
7.44
8.05
8.13
7.59
6.59
5.50
4.67
4.28
4.24
4.31
4.29
4.06
3.66
3.17
2.64
2.04
1.29
0.42
-0.48
-1.25
-1.83
-2.27
-2.79
-3.69
-5.17
-7.19
-9.46
-11.54
-12.91
-13.23
-12.35
-10.38
-7.59
-4.40
-1.23
1.58
3.77
5.22
6.00
6.32
6.44
6.52
6.60
6.56
6.20
5.50
4.57
3.75
3.33
3.49
4.14
5.00
5.77
6.21
6.29
6.07
5.68
5.10
4.26
3.03
1.45
-0.28
-1.82
-2.90
-3.43
-3.60
-3.79
-4.27
-5.11
-6.16
-7.14
-7.92
-8.51
-9.07
-9.60
-9.99
-9.93
-9.12
-7.51
-5.24
-2.66
-0.11
2.17
4.09
5.59
6.62
7.18
7.24
6.96
6.50
6.01
5.55
5.05
4.41
3.67
2.97
2.51
2.46
2.79
3.25
3.59
3.58
3.22
2.68
2.24
2.09
2.30
2.73
3.08
3.09
2.58
1.57
0.27
-1.04
-2.17
-3.08
-3.86
-4.65
-5.48
-6.27
-6.92
-7.38
-7.71
-8.06
-8.44
-8.67
-8.44
-7.43
-5.51
-2.87
0.03
2.69
4.70
5.87
6.20
5.79
4.88
3.70
2.58
1.83
1.69
2.15
3.02
3.94
4.54
4.63
4.16
3.34
2.44
1.76
1.43
1.45
1.64
1.77
1.65
1.21
0.48
-0.43
-1.40
-2.35
-3.18
-3.73
-3.88
-3.59
-3.00
-2.51
-2.52
-3.29
-4.68
-6.25
-7.38
-7.65
-6.96
-5.56
-3.86
-2.17
-0.65
0.76
2.15
3.52
4.70
5.41
5.42
4.76
3.68
2.59
1.86
1.64
1.85
2.22
2.56
2.80
2.99
3.27
3.74
4.37
5.00
5.43
5.36
4.66
3.32
1.53
-0.33
-1.89
-2.95
-3.54
-3.91
-4.34
-4.95
-5.69
-6.37
-6.87
-7.17
-7.33
-7.43
-7.39
-7.09
-6.34
-5.09
-3.45
-1.60
0.17
1.64
2.81
3.79
4.72
5.64
6.44
6.86
6.72
5.97
4.87
3.74
2.94
2.61
2.63
2.76
2.68
2.30
1.67
1.04
0.59
0.40
0.36
0.26
-0.10
-0.78
-1.64
-2.48
-3.08
-3.36
-3.50
-3.71
-4.23
-5.15
-6.38
-7.68
-8.76
-9.33
-9.25
-8.43
-6.92
-4.82
-2.26
0.53
3.24
5.47
6.78
6.93
5.94
4.15
2.17
0.61
-0.13
0.06
0.95
2.07
2.99
3.42
3.29
2.81
2.30
2.02
2.11
2.45
2.81
2.93
2.67
2.02
1.02
-0.25
-1.77
-3.49
-5.31
-7.06
-8.56
-9.67
-10.30
-10.43
-10.09
-9.35
-8.31
-7.08
-5.75
-4.35
-2.87
-1.27
0.49
2.30
4.02
5.46
6.44
6.87
6.69
5.91
4.68
3.27
2.04
1.33
1.26
1.72
2.32
2.69
2.57
1.95
1.03
0.14
-0.45
-0.65
-0.50
-0.11
0.38
0.75
0.80
0.34
-0.75
-2.39
-4.39
-6.46
-8.37
-9.97
-11.18
-11.95
-12.23
-11.94
-10.98
-9.33
-7.05
-4.39
-1.71
0.63
2.33
3.31
3.65
3.66
3.64
3.87
4.42
5.18
5.90
6.37
6.42
6.04
5.41
4.69
4.07
3.62
3.31
3.02
2.63
2.10
1.48
0.89
0.45
0.13
-0.16
-0.64
-1.47
-2.71
-4.26
-5.89
-7.37
-8.54
-9.38
-9.94
-10.30
-10.42
-10.18
-9.34
-7.76
-5.49
-2.88
-0.37
1.62
2.89
3.56
3.89
4.16
4.53
4.95
5.25
5.28
4.99
4.52
4.07
3.85
3.95
4.32
4.78
5.08
5.01
4.50
3.63
2.66
1.81
1.17
0.70
0.24
-0.31
-1.00
-1.70
-2.30
-2.75
-3.13
-3.58
-4.19
-5.05
-6.14
-7.40
-8.69
-9.73
-10.11
-9.46
-7.67
-4.94
-1.81
1.15
3.44
4.91
5.70
6.08
6.23
6.26
6.12
5.77
5.30
4.82
4.55
4.60
5.02
5.72
6.49
7.06
7.07
6.43
5.10
3.38
1.66
0.27
-0.66
-1.27
-1.83
-2.57
-3.37
-3.98
-4.12
-3.77
-3.34
-3.42
-4.52
-6.68
-9.32
-11.45
-12.14
-10.91
-8.00
-4.21
-0.44
2.57
4.59
5.76
6.40
6.80
7.09
7.24
7.14
6.78
6.21
5.56
4.90
4.26
3.66
3.16
2.86
2.88
3.29
3.98
4.64
4.93
4.58
3.52
1.90
0.04
-1.75
-3.26
-4.36
-5.04
-5.37
-5.50
-5.66
-6.14
-7.10
-8.49
-9.98
-11.06
-11.29
-10.45
-8.65
-6.18
-3.41
-0.61
2.04
4.32
6.03
6.94
7.00
6.43
5.65
5.08
4.89
4.96
4.98
4.72
4.14
3.40
2.70
2.18
1.85
1.72
1.82
2.17
2.72
3.25
3.50
3.27
2.60
1.68
0.71
-0.17
-1.02
-1.82
-2.50
-2.97
-3.23
-3.53
-4.25
-5.60
-7.36
-8.88
-9.45
-8.73
-7.03
-5.00
-3.29
-2.14
-1.25
-0.18
1.32
3.09
4.64
5.53
5.64
5.21
4.64
4.28
4.18
4.20
4.13
3.81
3.20
2.41
1.63
1.08
1.00
1.46
2.35
3.33
3.93
3.82
2.92
1.53
0.12
-0.88
-1.30
-1.29
-1.20
-1.44
-2.31
-3.85
-5.87
-7.99
-9.75
-10.74
-10.73
-9.76
-8.08
-6.02
-3.83
-1.57
0.75
3.07
5.10
6.50
7.03
6.77
6.08
5.38
4.88
4.52
4.02
3.22
2.22
1.40
1.09
1.39
2.08
2.78
3.17
3.19
2.95
2.68
2.49
2.34
2.13
1.81
1.44
1.09
0.80
0.49
0.06
-0.58
-1.42
-2.44
-3.69
-5.28
-7.30
-9.64
-11.88
-13.40
-13.61
-12.26
-9.56
-6.11
-2.59
0.52
3.09
5.13
6.71
7.77
8.19
8.01
7.46
6.99
6.95
7.42
8.10
8.49
8.19
7.16
5.75
4.55
4.00
4.18
4.83
5.45
5.72
5.56
5.18
4.87
4.71
4.56
4.10
3.07
1.44
-0.54
-2.52
-4.25
-5.68
-6.93
-8.15
-9.34
-10.33
-10.94
-11.08
-10.79
-10.26
-9.61
-8.83
-7.77
-6.24
-4.26
-2.03
0.10
1.90
3.31
4.48
5.58
6.65
7.48
7.78
7.41
6.47
5.32
4.40
3.97
3.96
4.08
4.04
3.71
3.22
2.83
2.77
3.09
3.71
4.44
5.05
5.36
5.23
4.58
3.39
1.76
-0.10
-1.90
-3.35
-4.29
-4.76
-4.96
-5.20
-5.73
-6.63
-7.83
-9.07
-9.95
-10.11
-9.36
-7.81
-5.78
-3.69
-1.79
-0.11
1.49
3.18
4.91
6.46
7.47
7.75
7.38
6.71
6.12
5.89
5.97
6.10
6.02
5.68
5.24
4.87
4.70
4.67
4.61
4.44
4.16
3.88
3.63
3.29
2.66
1.57
0.05
-1.67
-3.27
-4.55
-5.54
-6.39
-7.26
-8.19
-9.05
-9.67
-9.98
-9.96
-9.65
-9.04
-8.10
-6.77
-5.07
-3.07
-0.90
1.37
3.59
5.58
7.08
7.89
7.88
7.17
6.06
4.96
4.21
3.98
4.17
4.56
4.91
5.02
4.88
4.58
4.23
3.88
3.51
3.04
2.36
1.41
0.25
-1.00
-2.15
-3.04
-3.60
-3.83
-3.80
-3.61
-3.43
-3.43
-3.71
-4.37
-5.38
-6.61
-7.82
-8.70
-9.02
-8.68
-7.70
-6.21
-4.35
-2.20
0.23
2.81
5.33
7.40
8.61
8.73
7.77
6.07
4.09
2.29
0.97
0.22
-0.04
0.04
0.31
0.65
1.10
1.70
2.51
3.48
4.43
5.03
5.00
4.25
2.94
1.46
0.18
-0.74
-1.38
-2.05
-3.07
-4.56
-6.41
-8.33
-9.94
-10.96
-11.24
-10.77
-9.71
-8.25
-6.55
-4.68
-2.63
-0.33
2.15
4.51
6.35
7.26
7.07
5.99
4.50
3.13
2.26
1.94
1.97
2.11
2.24
2.44
2.89
3.67
4.66
5.60
6.12
5.95
5.03
3.56
1.91
0.49
-0.39
-0.63
-0.42
-0.15
-0.23
-0.92
-2.28
-4.11
-6.07
-7.81
-9.05
-9.69
-9.70
-9.16
-8.10
-6.58
-4.70
-2.63
-0.64
1.00
2.06
2.57
2.79
3.07
3.66
4.51
5.27
5.50
4.94
3.74
2.41
1.56
1.51
2.22
3.27
4.16
4.55
4.37
3.80
3.09
2.48
2.06
1.84
1.70
1.49
1.13
0.55
-0.27
-1.30
-2.51
-3.91
-5.44
-7.11
-8.82
-10.41
-11.70
-12.47
-12.54
-11.82
-10.30
-8.03
-5.18
-2.00
1.15
3.85
5.80
6.92
7.27
7.15
6.85
6.57
6.34
6.00
5.32
4.20
2.79
1.41
0.46
0.21
0.69
1.67
2.76
3.53
3.72
3.26
2.32
1.21
0.25
-0.41
-0.81
-1.12
-1.57
-2.27
-3.22
-4.32
-5.45
-6.56
-7.69
-8.80
-9.76
-10.25
-9.86
-8.33
-5.69
-2.27
1.40
4.77
7.48
9.26
10.05
9.86
8.81
7.23
5.55
4.22
3.49
3.29
3.31
3.12
2.50
1.50
0.45
-0.23
-0.40
-0.13
0.27
0.45
0.25
-0.30
-1.03
-1.81
-2.55
-3.36
-4.29
-5.33
-6.37
-7.26
-7.88
-8.24
-8.43
-8.57
-8.62
-8.39
-7.60
-6.07
-3.85
-1.22
1.39
3.57
5.06
5.82
5.97
5.74
5.37
5.06
4.96
5.08
5.38
5.71
5.80
5.45
4.56
3.21
1.71
0.42
-0.32
-0.34
0.25
1.06
1.64
1.64
1.03
0.04
-0.97
-1.64
-1.91
-1.92
-2.05
-2.63
-3.83
-5.55
-7.48
-9.18
-10.27
-10.52
-9.91
-8.61
-6.82
-4.82
-2.75
-0.63
1.60
3.89
6.10
7.88
8.91
9.01
8.33
7.23
6.23
5.61
5.41
5.40
5.27
4.84
4.12
3.27
2.50
1.95
1.70
1.71
1.89
2.06
1.96
1.43
0.41
-0.91
-2.21
-3.15
-3.59
-3.70
-3.85
-4.41
-5.54
-7.12
-8.76
-10.05
-10.72
-10.65
-9.92
-8.67
-7.00
-4.97
-2.65
-0.21
2.08
3.87
4.99
5.42
5.34
5.01
4.61
4.16
3.70
3.26
2.95
2.93
3.30
3.98
4.76
5.36
5.57
5.29
4.53
3.41
2.11
0.79
-0.40
-1.30
-1.85
-2.06
-2.08
-2.17
-2.62
-3.60
-5.14
-7.03
-8.85
-10.18
-10.67
-10.18
-8.81
-6.82
-4.52
-2.23
-0.16
1.57
2.94
4.03
4.99
5.93
6.88
7.74
8.34
8.56
8.36
7.79
7.01
6.16
5.40
4.85
4.57
4.60
4.84
5.08
5.05
4.52
3.42
1.87
0.21
-1.25
-2.25
-2.69
-2.66
-2.32
-1.88
-1.53
-1.49
-1.99
-3.15
-4.94
-7.06
-9.03
-10.31
-10.51
-9.63
-7.97
-6.04
-4.24
-2.65
-1.10
0.69
2.80
5.05
7.09
8.50
9.12
9.02
8.42
7.60
6.73
5.91
5.12
4.42
3.86
3.51
3.40
3.42
3.46
3.38
3.13
2.70
2.12
1.43
0.71
0.10
-0.26
-0.33
-0.20
-0.11
-0.39
-1.33
-3.00
-5.17
-7.42
-9.28
-10.36
-10.58
-10.03
-8.83
-7.10
-4.92
-2.38
0.32
2.81
4.79
6.01
6.47
6.38
6.09
5.88
5.88
6.07
6.27
6.41
6.44
6.40
6.29
6.13
5.86
5.47
4.96
4.45
4.02
3.72
3.54
3.33
2.93
2.26
1.32
0.19
-0.98
-2.05
-2.95
-3.66
-4.25
-4.91
-5.73
-6.80
-8.03
-9.24
-10.17
-10.63
-10.50
-9.81
-8.72
-7.35
-5.79
-4.00
-1.96
0.33
2.69
4.86
6.47
7.28
7.31
6.76
5.97
5.28
4.92
4.91
5.10
5.28
5.28
5.04
4.65
4.23
3.88
3.54
3.09
2.42
1.57
0.77
0.33
0.35
0.63
0.66
-0.08
-1.77
-4.05
-6.28
-7.86
-8.60
-8.84
-9.06
-9.61
-10.39
-10.91
-10.61
-9.27
-7.04
-4.38
-1.75
0.63
2.75
4.73
6.49
7.77
8.23
7.69
6.33
4.70
3.47
3.11
3.70
4.82
5.84
6.22
5.87
5.06
4.27
3.91
3.99
4.25
4.28
3.73
2.57
1.04
-0.51
-1.80
-2.69
-3.29
-3.79
-4.30
-4.89
-5.48
-5.98
-6.39
-6.85
-7.51
-8.44
-9.48
-10.23
-10.22
-9.16
-7.12
-4.47
-1.79
0.47
2.14
3.37
4.38
5.32
6.09
6.42
6.03
4.95
3.45
1.96
0.86
0.33
0.28
0.55
1.05
1.73
2.65
3.69
4.67
5.32
5.49
5.18
4.57
3.83
3.00
1.96
0.62
-0.99
-2.65
-4.04
-4.92
-5.30
-5.35
-5.37
-5.64
-6.27
-7.14
-8.00
-8.58
-8.66
-8.22
-7.31
-6.01
-4.30
-2.11
0.53
3.40
6.05
8.02
8.96
8.81
7.86
6.50
5.07
3.72
2.48
1.39
0.65
0.55
1.22
2.54
4.04
5.15
5.45
4.85
3.65
2.32
1.24
0.54
0.10
-0.39
-1.11
-2.07
-3.10
-4.05
-4.85
-5.63
-6.56
-7.75
-9.08
-10.25
-10.84
-10.61
-9.51
-7.77
-5.74
-3.74
-1.91
-0.30
1.10
2.27
3.11
3.53
3.55
3.26
2.88
2.62
2.58
2.73
2.97
3.20
3.36
3.43
3.44
3.42
3.40
3.42
3.51
3.63
3.70
3.62
3.33
2.79
2.06
1.15
0.08
-1.12
-2.40
-3.63
-4.70
-5.56
-6.25
-6.92
-7.64
-8.32
-8.68
-8.38
-7.22
-5.26
-2.80
-0.29
1.92
3.66
4.90
5.71
6.15
6.22
5.91
5.22
4.22
3.09
2.00
1.12
0.56
0.36
0.51
0.90
1.45
2.03
2.52
2.76
2.62
2.00
0.96
-0.28
-1.39
-2.03
-2.14
-1.94
-1.87
-2.39
-3.67
-5.55
-7.57
-9.27
-10.35
-10.80
-10.66
-10.00
-8.74
-6.78
-4.09
-0.89
2.34
5.06
6.81
7.49
7.32
6.72
6.14
5.78
5.57
5.26
4.64
3.72
2.80
2.18
1.99
2.09
2.09
1.68
0.84
-0.14
-0.80
-0.91
-0.61
-0.29
-0.38
-1.04
-2.15
-3.39
-4.54
-5.52
-6.40
-7.29
-8.26
-9.25
-10.10
-10.58
-10.49
-9.70
-8.26
-6.37
-4.36
-2.46
-0.74
0.96
2.87
5.02
7.11
8.62
9.05
8.30
6.74
5.02
3.72
3.07
2.85
2.67
2.24
1.56
0.89
0.52
0.58
0.96
1.40
1.66
1.63
1.34
0.88
0.32
-0.31
-1.08
-2.07
-3.33
-4.83
-6.42
-7.89
-9.00
-9.56
-9.49
-8.88
-7.88
-6.62
-5.12
-3.32
-1.20
1.09
3.31
5.14
6.36
6.91
6.88
6.47
5.80
4.92
3.88
2.79
1.81
1.16
0.90
0.97
1.13
1.16
0.99
0.76
0.71
1.03
1.68
2.42
2.87
2.80
2.16
1.08
-0.17
-1.44
-2.65
-3.90
-5.28
-6.88
-8.62
-10.23
-11.31
-11.40
-10.26
-7.93
-4.82
-1.56
1.29
3.36
4.64
5.38
5.84
6.16
6.36
6.37
6.16
5.87
5.64
5.65
5.95
6.46
6.95
7.18
6.94
6.18
5.00
3.64
2.37
1.41
0.86
0.73
0.93
1.31
1.67
1.78
1.38
0.31
-1.45
-3.73
-6.26
-8.69
-10.76
-12.30
-13.26
-13.66
-13.53
-12.90
-11.75
-10.07
-7.84
-5.06
-1.90
1.43
4.58
7.17
8.90
9.58
9.27
8.25
6.90
5.67
4.88
4.69
5.08
5.84
6.72
7.44
7.89
8.06
8.04
7.94
7.73
7.40
6.86
6.02
4.87
3.41
1.70
-0.19
-2.13
-3.96
-5.41
-6.28
-6.58
-6.54
-6.61
-7.19
-8.40
-10.00
-11.47
-12.21
-11.82
-10.19
-7.50
-4.10
-0.43
3.02
5.82
7.66
8.42
8.25
7.51
6.69
6.13
5.97
6.13
6.39
6.52
6.38
5.87
5.02
3.95
2.88
2.13
1.92
2.35
3.22
4.13
4.57
4.19
2.94
1.16
-0.59
-1.78
-2.19
-1.97
-1.58
-1.57
-2.33
-3.97
-6.27
-8.80
-11.04
-12.55
-12.96
-12.08
-9.88
-6.55
-2.50
1.63
5.12
7.40
8.30
8.10
7.44
7.04
7.24
7.91
8.50
8.37
7.23
5.32
3.31
1.93
1.63
2.34
3.57
4.74
5.48
5.65
5.34
4.64
3.58
2.12
0.34
-1.55
-3.15
-4.14
-4.40
-4.18
-3.91
-4.02
-4.71
-5.87
-7.18
-8.33
-9.18
-9.72
-9.98
-9.94
-9.47
-8.40
-6.68
-4.39
-1.77
0.91
3.39
5.46
6.91
7.63
7.62
7.09
6.36
5.78
5.58
5.70
5.89
5.86
5.41
4.63
3.80
3.18
2.97
3.06
3.17
2.99
2.29
1.07
-0.40
-1.80
-2.85
-3.47
-3.87
-4.34
-5.12
-6.19
-7.32
-8.15
-8.49
-8.37
-8.08
-7.92
-7.94
-7.89
-7.36
-6.05
-3.97
-1.47
0.90
2.77
4.03
4.83
5.45
6.08
6.77
7.46
8.08
8.62
9.04
9.27
9.21
8.72
7.81
6.60
5.35
4.28
3.54
3.19
3.14
3.27
3.34
3.06
2.19
0.61
-1.54
-3.89
-5.95
-7.34
-7.92
-7.83
-7.50
-7.37
-7.79
-8.86
-10.41
-12.04
-13.34
-13.83
-13.24
-11.49
-8.78
-5.48
-2.06
1.08
3.63
5.44
6.52
7.00
7.09
7.02
6.95
6.89
6.73
6.35
5.72
5.03
4.56
4.58
5.13
6.02
6.90
7.48
7.63
7.37
6.80
5.93
4.65
2.88
0.71
-1.49
-3.24
-4.14
-4.15
-3.59
-3.05
-3.06
-3.89
-5.56
-7.80
-10.19
-12.22
-13.42
-13.44
-12.20
-9.88
-7.00
-4.18
-1.96
-0.60
0.03
0.30
0.72
1.68
3.32
5.49
7.78
9.66
10.66
10.55
9.39
7.55
5.51
3.68
2.28
1.31
0.69
0.43
0.62
1.35
2.59
4.06
5.27
5.74
5.18
3.67
1.62
-0.48
-2.26
-3.58
-4.57
-5.47
-6.46
-7.59
-8.77
-9.78
-10.39
-10.39
-9.67
-8.26
-6.36
-4.21
-2.05
-0.01
1.87
3.71
5.54
7.21
8.38
8.71
8.02
6.52
4.70
3.19
2.42
2.45
2.94
3.40
3.49
3.25
2.95
2.95
3.36
4.03
4.58
4.71
4.31
3.46
2.35
1.10
-0.19
-1.45
-2.56
-3.44
-4.08
-4.62
-5.30
-6.29
-7.60
-8.99
-10.08
-10.48
-9.96
-8.52
-6.36
-3.83
-1.32
0.93
2.82
4.43
5.91
7.31
8.44
8.94
8.50
7.06
4.96
2.77
1.04
0.10
-0.02
0.48
1.32
2.26
3.06
3.49
3.36
2.62
1.41
0.05
-1.04
-1.61
-1.70
-1.54
-1.43
-1.58
-2.06
-2.88
-4.03
-5.48
-7.20
-9.02
-10.65
-11.73
-11.88
-10.92
-8.88
-6.07
-2.93
0.02
2.45
4.25
5.54
6.62
7.69
8.73
9.46
9.50
8.63
7.02
5.15
3.55
2.55
2.17
2.13
2.13
2.07
2.03
2.19
2.67
3.37
3.95
3.99
3.17
1.39
-1.09
-3.80
-6.23
-7.97
-8.86
-9.08
-9.02
-9.09
-9.51
-10.20
-10.86
-11.20
-11.01
-10.25
-9.00
-7.26
-5.00
-2.18
1.08
4.37
7.11
8.71
8.96
8.10
6.75
5.63
5.13
5.26
5.66
5.91
5.76
5.25
4.58
3.94
3.33
2.74
2.15
1.68
1.48
1.61
1.86
1.93
1.57
0.72
-0.40
-1.49
-2.35
-2.99
-3.59
-4.39
-5.52
-6.92
-8.39
-9.62
-10.37
-10.59
-10.36
-9.86
-9.22
-8.42
-7.21
-5.33
-2.71
0.38
3.39
5.76
7.16
7.79
8.04
8.40
8.96
9.50
9.59
8.98
7.71
6.16
4.74
3.78
3.32
3.17
3.08
2.87
2.52
2.14
1.89
1.82
1.77
1.49
0.73
-0.61
-2.29
-3.93
-5.15
-5.76
-5.93
-6.01
-6.38
-7.30
-8.77
-10.51
-12.22
-13.48
-14.00
-13.57
-12.10
-9.62
-6.34
-2.62
1.08
4.31
6.73
8.18
8.75
8.68
8.31
7.95
7.74
7.66
7.57
7.29
6.77
6.09
5.47
5.17
5.40
6.17
7.24
8.23
8.73
8.47
7.41
5.72
3.63
1.41
-0.69
-2.42
-3.55
-3.89
-3.49
-2.69
-2.06
-2.28
-3.70
-6.27
-9.46
-12.47
-14.52
-15.14
-14.23
-12.02
-8.98
-5.55
-2.08
1.14
4.02
6.47
8.47
9.92
10.72
10.83
10.32
9.38
8.29
7.32
6.59
6.03
5.49
4.78
3.89
2.98
2.35
2.24
2.75
3.72
4.86
5.86
6.51
6.73
6.57
6.02
5.07
3.69
1.85
-0.31
-2.51
-4.37
-5.63
-6.24
-6.39
-6.43
-6.69
-7.33
-8.32
-9.50
-10.64
-11.56
-12.09
-12.07
-11.34
-9.85
-7.64
-4.92
-2.06
0.60
2.80
4.43
5.50
6.11
6.34
6.34
6.29
6.29
6.40
6.53
6.44
5.98
5.14
4.15
3.38
3.16
3.61
4.53
5.52
6.13
6.12
5.44
4.31
2.99
1.73
0.66
-0.25
-1.09
-1.98
-3.06
-4.37
-5.85
-7.29
-8.44
-9.16
-9.48
-9.65
-9.92
-10.40
-10.92
-11.11
-10.56
-9.03
-6.64
-3.71
-0.71
2.03
4.32
6.16
7.58
8.55
9.07
9.12
8.77
8.12
7.28
6.32
5.33
4.39
3.61
3.17
3.18
3.67
4.48
5.31
5.87
5.97
5.64
5.06
4.39
3.65
2.73
1.45
-0.16
-1.85
-3.22
-3.92
-3.96
-3.67
-3.61
-4.22
-5.68
-7.75
-9.94
-11.83
-13.09
-13.59
-13.29
-12.22
-10.45
-8.18
-5.73
-3.47
-1.65
-0.29
0.85
2.05
3.49
5.10
6.58
7.63
8.13
8.09
7.61
6.76
5.63
4.29
2.97
2.01
1.69
2.10
2.94
3.81
4.31
4.36
4.11
3.85
3.71
3.56
3.21
2.49
1.52
0.52
-0.30
-0.89
-1.41
-2.13
-3.22
-4.66
-6.29
-7.91
-9.43
-10.82
-12.04
-12.90
-13.15
-12.59
-11.19
-9.17
-6.84
-4.50
-2.23
0.02
2.31
4.60
6.63
8.07
8.69
8.55
7.93
7.21
6.65
6.27
5.93
5.46
4.75
3.88
2.98
2.20
1.66
1.46
1.68
2.34
3.26
4.12
4.47
3.98
2.56
0.39
-2.05
-4.22
-5.61
-5.97
-5.38
-4.29
-3.33
-3.04
-3.72
-5.18
-7.00
-8.61
-9.62
-9.93
-9.65
-8.95
-7.94
-6.60
-4.88
-2.84
-0.58
1.68
3.72
5.38
6.49
6.97
6.85
6.30
5.55
4.80
4.14
3.54
2.95
2.37
1.85
1.44
1.26
1.35
1.74
2.44
3.36
4.35
5.16
5.52
5.24
4.27
2.73
0.87
-1.00
-2.65
-3.94
-4.87
-5.52
-6.16
-6.96
-8.03
-9.26
-10.36
-10.98
-10.80
-9.74
-7.93
-5.66
-3.28
-1.09
0.74
2.14
3.12
3.75
4.11
4.27
4.29
4.26
4.29
4.43
4.71
5.03
5.23
5.20
4.91
4.41
3.92
3.61
3.59
3.85
4.19
4.39
4.27
3.76
2.94
1.92
0.80
-0.35
-1.47
-2.50
-3.28
-3.70
-3.78
-3.75
-3.93
-4.63
-5.98
-7.78
-9.65
-11.06
-11.52
-10.68
-8.45
-5.07
-1.09
2.76
5.80
7.60
8.11
7.60
6.55
5.42
4.50
3.88
3.47
3.09
2.61
1.98
1.29
0.74
0.55
0.80
1.37
1.99
2.37
2.40
2.15
1.80
1.46
1.17
0.80
0.28
-0.41
-1.22
-2.15
-3.32
-4.89
-6.88
-9.01
-10.73
-11.49
-10.97
-9.37
-7.24
-5.21
-3.60
-2.38
-1.18
0.33
2.23
4.29
6.10
7.32
7.77
7.59
6.98
6.14
5.25
4.40
3.71
3.20
2.85
2.51
2.04
1.40
0.71
0.27
0.34
0.94
1.76
2.27
1.93
0.52
-1.77
-4.36
-6.59
-8.05
-8.67
-8.76
-8.69
-8.81
-9.23
-9.87
-10.43
-10.58
-10.04
-8.70
-6.66
-4.18
-1.57
0.99
3.38
5.51
7.20
8.19
8.24
7.36
5.86
4.26
3.11
2.64
2.78
3.28
3.91
4.55
5.11
5.47
5.43
4.90
3.97
2.98
2.28
2.03
1.97
1.58
0.36
-1.79
-4.52
-7.10
-8.83
-9.39
-8.98
-8.16
-7.60
-7.68
-8.37
-9.33
-10.05
-10.16
-9.48
-8.07
-6.07
-3.65
-0.98
1.79
4.42
6.63
8.15
8.75
8.39
7.29
5.84
4.52
3.71
3.58
3.95
4.48
4.81
4.78
4.52
4.32
4.39
4.69
4.99
5.03
4.66
3.91
2.86
1.57
0.04
-1.66
-3.36
-4.82
-5.86
-6.58
-7.33
-8.50
-10.21
-12.20
-13.93
-14.72
-14.24
-12.50
-9.82
-6.70
-3.51
-0.46
2.31
4.65
6.39
7.34
7.49
7.03
6.38
5.95
6.07
6.77
7.77
8.62
8.91
8.48
7.46
6.17
5.01
4.22
3.88
3.96
4.36
4.92
5.42
5.55
5.00
3.65
1.65
-0.54
-2.40
-3.56
-4.08
-4.31
-4.77
-5.82
-7.46
-9.36
-11.09
-12.30
-12.86
-12.81
-12.23
-11.08
-9.25
-6.71
-3.60
-0.26
2.87
5.41
7.25
8.56
9.63
10.67
11.63
12.19
12.00
10.87
9.00
6.87
5.06
3.98
3.67
3.93
4.48
5.15
5.85
6.52
7.01
7.02
6.32
4.83
2.81
0.78
-0.74
-1.47
-1.48
-1.16
-1.05
-1.53
-2.78
-4.69
-7.01
-9.43
-11.70
-13.58
-14.89
-15.46
-15.13
-13.81
-11.49
-8.33
-4.69
-1.00
2.36
5.11
7.17
8.62
9.59
10.16
10.39
10.26
9.81
9.06
8.12
7.08
6.03
5.08
4.39
4.09
4.28
4.91
5.79
6.67
7.29
7.42
6.97
5.92
4.40
2.57
0.72
-0.89
-2.08
-2.82
-3.28
-3.69
-4.31
-5.23
-6.38
-7.60
-8.70
-9.58
-10.18
-10.51
-10.50
-10.10
-9.24
-7.89
-6.03
-3.68
-0.88
2.24
5.38
8.04
9.73
10.10
9.24
7.65
6.08
5.12
5.02
5.55
6.24
6.66
6.70
6.52
6.35
6.34
6.33
6.07
5.37
4.25
3.04
2.12
1.74
1.80
1.91
1.59
0.54
-1.19
-3.24
-5.08
-6.30
-6.81
-6.84
-6.80
-7.09
-7.89
-9.07
-10.24
-10.86
-10.54
-9.14
-6.88
-4.18
-1.47
1.00
3.11
4.87
6.17
6.86
6.88
6.35
5.63
5.09
4.90
