1635868892.00
64.000000
-0.00
-0.00
-0.00
-0.00
-0.00
-0.00
-0.00
-0.00
-0.00
-0.00
0.00
0.01
0.01
-0.00
-0.03
-0.05
-0.05
0.00
0.13
0.36
0.66
1.01
1.37
1.72
2.06
2.40
2.79
3.24
3.80
4.42
5.06
5.66
6.20
6.68
7.15
7.68
8.31
9.14
10.09
11.04
11.88
12.56
13.14
13.76
14.65
15.96
17.91
20.32
22.90
25.38
27.58
29.57
31.68
34.32
37.81
42.54
48.15
54.10
59.83
64.97
69.58
74.14
79.34
85.71
93.76
103.00
112.62
121.73
129.77
136.75
143.30
150.75
157.77
166.64
177.95
191.79
206.97
220.57
228.25
225.36
208.53
176.87
132.76
80.05
23.07
-34.94
-92.44
-149.16
-205.23
-260.37
-313.74
-363.87
-409.83
-450.91
-486.50
-515.74
-537.23
-549.22
-549.96
-538.37
-514.21
-478.67
-433.87
-382.44
-327.00
-269.80
-212.58
-156.58
-102.84
-52.23
-5.73
35.80
71.69
101.66
125.87
144.80
159.17
169.69
176.97
181.43
183.32
182.90
180.43
176.26
170.79
164.43
157.53
150.33
142.98
135.54
128.05
120.56
113.13
105.84
98.74
91.90
85.35
79.11
73.19
67.60
62.35
57.46
52.94
48.78
44.99
41.57
38.50
35.78
33.42
31.40
29.72
28.37
27.35
26.65
26.25
26.16
26.37
26.85
27.57
28.51
29.62
30.81
32.01
33.10
33.95
34.44
34.43
33.81
32.50
30.46
27.71
24.33
20.40
16.09
11.57
7.03
2.63
-1.51
-5.29
-8.69
-11.73
-14.51
-17.07
-19.55
-22.02
-24.52
-27.04
-29.50
-31.76
-33.62
-34.86
-35.25
-34.59
-32.76
-29.66
-25.30
-19.74
-13.14
-5.73
2.26
10.57
18.88
26.91
34.45
41.37
47.61
53.16
58.08
62.44
66.36
69.75
72.60
74.94
76.78
78.19
79.25
80.06
80.77
81.54
82.26
82.89
83.43
83.96
84.54
85.25
86.24
87.65
89.69
92.14
94.89
97.85
100.88
103.79
106.26
107.74
107.46
107.21
107.55
108.66
110.57
113.18
116.27
119.58
122.83
125.74
128.09
129.24
128.76
126.32
121.73
114.96
106.13
95.48
83.40
70.42
56.80
42.98
29.44
16.70
5.28
-4.31
-11.64
-16.37
-18.27
-17.44
-14.10
-8.53
-1.14
7.58
17.05
26.57
35.44
42.94
48.37
51.21
51.20
48.40
43.09
35.74
26.86
16.96
6.44
-4.40
-15.29
-25.92
-35.89
-44.77
-52.14
-57.80
-61.78
-64.45
-66.30
-67.79
-69.06
-69.84
-69.48
-67.23
-62.67
-56.07
-48.47
-41.45
-36.72
-35.46
-38.05
-43.94
-52.08
-61.51
-71.90
-83.72
-97.99
-115.52
-136.35
-159.31
-182.32
-202.93
-219.29
-230.90
-238.67
-244.92
-252.89
-266.12
-287.52
-318.00
-355.06
-392.22
-419.81
-427.45
-407.52
-358.24
-285.02
-199.28
-115.13
-45.27
2.04
24.00
22.40
1.77
-32.13
-72.97
-113.59
-146.04
-162.55
-157.69
-130.61
-86.03
-33.29
16.63
54.54
75.12
77.27
63.05
36.37
2.31
-32.89
-62.24
-79.12
-79.45
-63.43
-35.81
-4.73
20.99
34.11
30.18
7.80
-31.66
-83.88
-141.90
-196.87
-239.98
-264.91
-269.66
-256.84
-232.27
-202.45
-172.35
-144.29
-117.97
-91.36
-61.64
-26.12
16.63
65.76
117.62
166.15
204.30
226.57
230.99
219.76
198.18
172.26
146.53
123.17
102.41
84.01
68.62
58.24
55.41
61.97
78.03
102.06
131.75
164.78
199.11
232.69
262.78
286.03
299.13
300.07
289.00
268.41
242.39
215.47
191.31
171.44
155.08
139.70
122.40
101.69
78.35
55.23
35.58
20.99
10.03
-0.99
-15.76
-35.50
-57.67
-77.29
-89.43
-91.74
-85.25
-73.28
-59.31
-45.63
-32.86
-20.86
-9.78
-0.53
5.52
7.29
4.65
-1.22
-8.05
-12.81
-12.64
-5.77
7.79
25.57
43.33
56.24
60.20
53.07
34.96
8.08
-24.00
-56.93
-86.40
-109.08
-123.50
-130.86
-134.45
-138.37
-145.62
-156.73
-169.86
-182.08
-190.55
-193.10
-188.59
-177.00
-160.29
-142.59
-129.65
-126.28
-133.69
-147.41
-158.24
-155.88
-133.84
-93.44
-44.08
0.22
25.77
23.62
-8.58
-67.19
-144.31
-229.49
-311.37
-379.08
-424.08
-441.97
-433.25
-403.11
-359.74
-311.80
-266.13
-226.57
-193.93
-166.92
-143.20
-120.10
-95.44
-68.34
-39.89
-12.88
9.11
23.44
29.50
28.97
24.97
20.47
17.18
15.72
16.33
19.69
26.90
38.68
54.65
73.54
94.23
116.88
142.90
173.51
207.86
242.27
271.31
290.39
298.34
298.28
296.27
298.32
307.53
322.93
340.40
354.73
361.63
358.92
346.54
326.17
300.43
272.32
244.67
219.64
198.15
179.47
161.08
138.96
109.02
69.04
20.53
-30.74
-76.06
-107.01
-118.77
-111.99
-92.32
-67.87
-46.21
-32.83
-30.86
-41.59
-64.71
-97.51
-134.34
-167.06
-186.98
-187.73
-167.44
-128.98
-78.47
-23.08
30.68
77.53
113.47
136.01
144.86
142.69
134.86
127.84
127.06
135.02
150.71
170.54
190.07
205.64
215.35
219.07
217.65
212.09
202.94
190.11
173.13
151.46
124.37
91.10
51.27
5.65
-42.82
-88.82
-125.64
-147.44
-151.91
-141.63
-123.42
-105.45
-93.75
-89.88
-91.00
-92.22
-89.54
-81.70
-70.15
-57.34
-44.86
-32.62
-19.32
-3.81
13.67
31.29
46.35
56.50
60.96
60.89
59.17
59.45
64.82
76.56
93.64
112.81
129.54
139.51
139.61
128.63
107.06
76.63
39.98
0.50
-37.78
-70.72
-95.05
-109.72
-116.55
-119.99
-125.41
-136.76
-154.42
-174.78
-191.54
-198.48
-192.20
-173.26
-145.43
-113.52
-81.37
-50.99
-23.20
1.20
20.63
33.01
37.08
33.61
25.57
17.07
11.59
10.62
13.38
17.63
21.13
22.58
21.92
19.90
17.24
14.15
10.23
4.91
-2.08
-10.36
-19.10
-27.38
-34.86
-41.99
-49.82
-59.40
-71.18
-84.45
-97.36
-107.38
-112.07
-109.91
-100.90
-86.52
-69.28
-51.76
-35.92
-22.81
-12.78
-6.01
-2.76
-3.44
-8.02
-15.80
-25.26
-34.48
-41.62
-45.38
-45.34
-41.71
-35.37
-27.79
-21.10
-17.70
-19.85
-28.86
-44.46
-64.78
-86.99
-108.74
-129.23
-149.40
-170.66
-193.44
-215.85
-233.73
-242.13
-237.23
-217.57
-183.92
-138.33
-83.26
-21.79
41.08
97.75
138.65
155.67
146.17
115.53
75.99
41.76
23.18
22.71
35.24
52.06
66.13
75.31
82.00
89.95
100.73
112.36
120.63
122.05
116.19
106.19
96.85
92.01
92.88
97.81
103.53
106.85
105.97
100.89
93.06
84.60
77.58
73.55
73.11
75.87
80.77
86.44
91.79
96.31
100.23
104.18
108.78
114.08
119.35
123.25
124.48
122.43
117.73
112.19
108.04
107.09
109.75
114.69
119.32
120.58
115.94
103.98
84.93
60.70
34.94
12.16
-3.58
-10.31
-9.49
-5.91
-6.39
-17.00
-40.50
-74.70
-113.04
-146.81
-168.11
-172.46
-159.94
-134.83
-104.18
-75.96
-57.08
-52.01
-61.95
-85.01
-117.07
-152.69
-185.80
-210.21
-220.09
-210.70
-179.58
-127.72
-60.29
13.78
83.60
138.83
172.48
182.51
172.53
150.51
126.12
107.40
98.09
96.75
98.22
96.57
88.13
73.15
54.69
36.35
20.00
5.01
-10.37
-26.81
-42.48
-53.46
-55.82
-48.11
-32.36
-13.14
4.76
18.62
28.68
37.64
48.69
64.03
83.96
107.34
132.88
159.53
186.62
213.36
238.17
258.91
273.86
282.62
286.64
288.78
291.78
297.12
304.24
310.93
314.29
311.96
302.79
286.96
265.42
239.19
208.87
174.54
136.12
93.87
48.79
2.85
-41.41
-81.52
-115.81
-143.78
-166.19
-184.53
-200.46
-215.60
-231.41
-249.05
-268.80
-289.30
-307.08
-317.16
-314.81
-297.95
-268.65
-233.15
-199.82
-175.95
-164.80
-164.81
-170.92
-177.33
-179.78
-176.61
-167.98
-154.60
-136.82
-114.96
-90.33
-66.25
-47.80
-40.38
-47.32
-67.94
-97.34
-127.94
-152.21
-165.30
-166.11
-156.76
-140.89
-122.02
-102.78
-84.93
-69.86
-58.83
-52.40
-49.81
-48.69
-45.76
-38.02
-24.02
-4.45
18.26
40.83
59.98
73.10
78.76
77.39
71.46
64.64
59.93
57.92
56.58
52.73
44.37
32.10
18.84
8.01
1.68
-0.43
-0.10
0.87
1.77
2.86
4.65
7.45
11.82
19.30
32.17
51.72
75.93
98.59
110.98
105.61
79.74
36.81
-14.75
-64.46
-102.87
-123.55
-123.63
-103.40
-65.80
-15.91
39.53
93.15
138.36
170.85
189.18
194.65
190.48
180.65
168.92
158.11
149.76
144.00
139.80
135.36
128.76
118.73
105.12
89.12
72.91
59.04
49.33
44.20
42.19
40.47
36.04
26.84
12.80
-4.16
-20.77
-33.44
-39.34
-37.15
-27.35
-12.09
5.34
21.44
33.32
39.53
40.18
36.61
30.62
23.80
17.17
11.27
6.52
3.35
1.92
1.97
2.53
2.20
-0.26
-5.42
-12.81
-21.11
-28.57
-33.79
-36.13
-36.15
-35.78
-38.19
-47.21
-66.33
-97.25
-138.72
-186.27
-233.00
-271.63
-296.48
-304.95
-297.80
-278.33
-251.11
-220.58
-190.28
-162.38
-137.43
-114.52
-91.62
-66.46
-37.52
-4.86
29.81
63.61
93.57
117.51
134.35
143.94
146.58
142.58
132.34
116.61
96.83
75.11
54.07
36.35
24.05
18.36
19.29
25.90
36.34
48.30
59.15
66.37
67.79
62.16
49.61
31.79
11.71
-7.07
-21.48
-29.86
-32.22
-29.77
-24.28
-17.51
-11.20
-7.11
-7.20
-13.15
-25.67
-43.95
-65.73
-88.03
-108.05
-124.21
-136.46
-146.19
-155.62
-166.66
-179.73
-192.90
-202.02
-202.25
-190.42
-167.21
-137.66
-109.53
-89.91
-82.02
-84.11
-90.62
-95.48
-95.43
-91.52
-88.66
-93.56
-112.36
-148.47
-201.26
-265.70
-333.29
-393.91
-438.42
-461.11
-460.77
-440.17
-404.23
-357.93
-304.80
-246.98
-185.87
-122.95
-59.87
1.92
61.43
117.91
170.26
216.80
255.79
286.39
309.32
326.33
339.23
348.42
352.36
348.13
333.03
305.88
267.56
220.82
169.94
120.43
78.48
49.72
37.60
41.85
58.29
80.30
101.62
118.67
131.31
141.57
151.01
159.03
162.50
157.76
142.97
119.72
92.77
68.18
50.96
43.62
45.86
55.32
68.83
83.57
98.07
112.43
128.18
147.69
173.01
204.78
241.99
282.80
325.63
369.68
413.97
455.48
487.96
502.85
492.66
455.35
396.47
327.48
260.69
203.81
157.37
116.53
75.77
33.18
-8.40
-43.71
-68.99
-84.54
-94.40
-103.69
-115.55
-129.86
-143.76
-154.08
-159.43
-160.86
-161.09
-163.23
-169.50
-180.73
-196.37
-214.73
-233.47
-250.27
-263.24
-271.44
-274.64
-272.77
-265.12
-250.07
-225.63
-190.73
-146.35
-95.89
-44.33
3.20
42.76
72.06
90.08
96.27
90.36
72.71
45.42
12.54
-20.37
-47.73
-65.73
-73.42
-72.76
-67.58
-62.06
-59.36
-61.00
-66.72
-74.88
-83.16
-89.16
-91.11
-88.19
-80.80
-70.28
-58.52
-47.26
-37.72
-30.48
-25.54
-22.66
-21.47
-21.47
-22.04
-22.50
-22.30
-21.22
-19.45
-17.39
-15.24
-12.74
-9.24
-4.05
3.09
11.71
20.75
28.87
34.96
38.64
40.50
42.07
45.31
51.82
61.94
74.36
86.54
95.79
100.42
100.10
95.42
86.74
73.31
53.70
27.33
-3.92
-35.52
-61.82
-78.70
-85.34
-84.40
-80.09
-75.93
-73.45
-72.64
-73.61
-77.85
-88.02
-106.52
-133.44
-165.72
-197.79
-223.73
-239.46
-244.07
-239.41
-228.80
-215.56
-201.94
-189.01
-177.05
-166.30
-157.09
-149.65
-143.68
-138.22
-132.10
-124.63
-116.23
-108.38
-103.09
-101.66
-103.95
-108.27
-111.92
-112.17
-106.80
-94.71
-76.09
-52.49
-26.57
-1.61
19.28
34.11
42.46
45.46
45.10
43.39
41.68
40.52
39.92
39.76
40.04
40.67
41.44
41.87
41.25
39.04
35.20
30.29
25.37
21.57
19.33
18.09
16.46
12.79
5.95
-4.13
-16.61
-30.22
-43.87
-56.82
-68.55
-78.28
-84.85
-87.12
-84.47
-77.06
-65.65
-51.25
-35.08
-18.73
-4.37
5.49
9.18
6.83
1.02
-3.86
-3.25
5.82
23.80
49.19
79.72
113.62
149.61
186.00
219.84
246.73
262.07
262.77
248.73
222.86
189.88
154.54
119.94
87.15
55.97
25.99
-2.54
-28.76
-51.61
-70.43
-84.93
-94.85
-99.52
-98.03
-89.99
-76.07
-58.12
-38.44
-19.21
-2.13
11.58
21.26
27.08
30.55
34.43
41.64
53.65
69.24
84.85
96.54
102.78
105.97
111.54
125.25
150.04
184.43
223.38
260.63
291.08
311.71
321.22
319.12
305.12
279.51
243.97
202.27
159.83
122.54
94.99
79.21
74.30
77.03
83.21
88.90
91.41
89.65
84.00
75.81
66.82
58.23
49.91
40.35
27.31
9.33
-12.91
-35.92
-54.24
-62.43
-57.38
-39.92
-14.63
11.84
33.38
46.79
52.45
53.42
53.46
54.88
57.47
59.04
57.07
50.66
41.52
33.17
28.91
29.64
33.11
34.81
30.33
17.51
-2.51
-25.97
-48.21
-65.58
-76.50
-81.49
-82.57
-82.55
-84.39
-90.65
-102.52
-118.89
-135.84
-147.09
-145.76
-126.70
-88.68
-35.13
26.91
89.26
145.45
192.44
230.68
262.53
290.15
314.14
333.50
346.83
353.70
355.10
352.84
348.30
341.38
330.36
312.95
287.70
254.81
215.95
173.27
128.12
80.25
27.93
-30.92
-97.03
-168.48
-240.44
-306.33
-359.94
-397.47
-418.66
-426.38
-424.87
-417.83
-407.11
-392.87
-374.47
-351.67
-325.23
-296.71
-267.78
-239.84
-213.75
-190.01
-168.88
-150.38
-134.31
-120.52
-109.05
-100.14
-94.16
-91.26
-90.96
-91.86
-92.13
-90.05
-84.84
-77.00
-68.31
-61.43
-59.01
-62.65
-71.83
-83.40
-92.05
-92.12
-79.87
-55.40
-22.95
10.55
38.12
55.28
61.34
59.04
52.72
46.57
43.35
44.22
49.16
57.53
68.24
79.68
89.48
94.74
92.57
81.12
60.33
32.34
0.91
-29.65
-55.69
-75.11
-87.36
-93.05
-93.26
-89.12
-81.64
-71.83
-60.77
-49.61
-39.35
-30.83
-24.72
-21.52
-21.47
-24.34
-29.18
-34.45
-38.60
-40.67
-40.67
-39.41
-37.58
-34.65
-28.47
-15.81
6.12
37.93
77.18
119.02
157.85
189.51
212.46
227.52
236.64
241.19
241.35
236.30
225.34
208.71
187.70
163.74
137.19
106.76
70.31
26.90
-21.19
-67.74
-104.23
-122.84
-119.90
-97.61
-63.20
-25.58
8.30
35.59
57.35
76.10
93.54
109.54
122.98
133.36
141.69
149.93
159.38
169.56
178.13
182.28
180.62
174.29
166.61
161.32
160.54
163.63
167.50
168.05
162.07
148.44
128.60
105.91
84.40
67.47
56.93
52.87
53.83
57.61
61.83
64.51
64.62
62.14
57.91
53.06
48.41
44.01
39.16
32.94
24.74
14.77
3.92
-6.77
-16.73
-26.23
-36.08
-47.06
-59.26
-71.80
-83.29
-92.40
-98.78
-103.33
-108.13
-115.96
-129.80
-152.44
-185.94
-230.79
-285.00
-343.49
-398.80
-443.14
-471.13
-481.81
-478.88
-468.81
-457.82
-449.41
-443.79
-439.03
-433.12
-425.23
-415.73
-405.06
-392.40
-375.52
-351.60
-318.55
-275.88
-224.74
-167.73
-108.30
-50.45
1.60
44.16
74.91
93.74
102.75
105.30
104.28
100.85
94.08
82.01
63.59
40.05
15.16
-5.86
-18.22
-19.24
-8.96
10.18
34.49
60.29
84.78
106.32
123.78
136.08
142.11
141.29
134.46
124.14
113.77
106.09
101.35
96.90
88.42
72.40
48.47
20.18
-6.50
-25.98
-35.53
-36.33
-32.34
-28.31
-27.81
-32.18
-40.71
-51.35
-61.39
-67.97
-68.61
-61.70
-47.49
-28.55
-9.45
4.49
9.19
3.61
-9.57
-24.84
-35.76
-37.15
-26.53
-4.34
26.87
63.58
102.44
140.57
175.57
205.15
227.13
239.91
243.18
238.48
229.17
219.63
213.79
213.80
219.55
229.10
239.81
249.47
256.62
260.16
258.60
249.85
231.84
203.67
166.39
123.09
77.85
34.44
-4.74
-38.96
-68.82
-95.58
-120.43
-144.10
-166.74
-187.89
-206.57
-221.66
-231.87
-235.95
-232.75
-221.47
-201.99
-175.28
-143.64
-110.37
-78.98
-52.11
-30.92
-15.20
-3.93
3.92
8.95
11.44
11.56
9.64
6.21
2.06
-1.67
-3.23
-0.51
8.34
24.03
45.19
68.28
88.65
102.53
108.88
110.12
110.85
115.45
125.91
140.80
156.19
167.58
171.68
167.31
155.11
136.64
113.77
88.79
64.57
44.47
31.61
27.57
31.61
40.71
50.79
58.32
61.37
59.91
55.27
49.20
43.10
37.62
32.64
27.54
21.71
14.91
7.49
0.44
-4.82
-6.95
-5.09
0.86
10.10
21.15
32.02
40.68
45.60
46.15
42.98
37.76
32.69
29.54
28.92
29.90
30.51
28.67
23.22
14.40
3.64
-7.30
-17.20
-25.88
-33.94
-41.97
-49.92
-56.88
-61.41
-62.26
-59.11
-52.74
-44.79
-37.14
-31.27
-27.87
-26.82
-27.41
-28.72
-29.93
-30.62
-30.76
-30.58
-30.30
-29.85
-28.80
-26.53
-22.74
-17.60
-11.85
-6.36
-1.68
2.26
6.03
10.15
14.52
18.17
19.63
17.60
11.60
2.22
-9.16
-21.14
-32.90
-44.32
-55.72
-67.32
-78.96
-90.11
-100.28
-109.30
-117.28
-124.40
-130.59
-135.43
-138.24
-138.06
-133.69
-123.79
-107.25
-83.88
-55.22
-24.42
4.37
27.51
43.35
52.72
58.36
63.80
72.35
86.73
109.06
140.55
180.87
227.38
275.11
317.86
350.25
369.52
376.10
372.84
363.14
349.27
331.69
309.48
281.25
245.95
202.95
151.78
91.89
23.31
-52.39
-130.94
-205.68
-268.75
-313.62
-337.42
-341.83
-332.16
-314.99
-295.52
-276.15
-256.72
-235.88
-212.80
-188.01
-163.12
-139.84
-119.18
-101.28
-85.62
-71.74
-59.58
-49.44
-41.70
-36.36
-32.80
-29.97
-26.64
-21.94
-15.71
-8.56
-1.69
3.60
6.38
6.51
4.58
1.74
-0.87
-2.53
-3.22
-3.59
-4.62
-7.28
-12.12
-19.05
-27.28
-35.42
-41.72
-44.47
-42.48
-35.47
-24.17
-10.13
4.77
18.85
30.85
40.12
46.37
49.50
49.51
46.64
41.46
34.96
28.40
23.03
19.70
18.70
19.74
22.03
24.58
26.33
26.43
24.47
20.54
15.27
9.55
4.18
-0.51
-4.80
-9.42
-15.28
-22.87
-32.02
-41.69
-50.17
-55.57
-56.30
-51.56
-41.67
-27.98
-12.52
2.62
15.85
26.35
33.92
38.74
40.93
40.53
37.68
32.86
27.01
21.37
17.03
14.53
13.70
13.82
14.01
13.59
12.31
10.38
8.20
6.16
4.41
2.85
1.10
-1.41
-5.27
-10.92
-18.38
-27.03
-35.52
-41.99
-44.49
-41.69
-33.34
-20.46
-5.05
10.53
24.28
34.96
42.23
46.46
48.26
48.27
46.99
44.77
41.90
38.67
35.36
32.26
29.60
27.56
26.16
25.29
24.61
23.69
22.11
19.59
16.13
11.91
7.24
2.48
-2.09
-6.40
-10.49
-14.60
-19.07
-24.22
-30.23
-36.81
-43.08
-47.60
-48.72
-45.07
-36.29
-23.21
-7.66
8.08
22.09
33.30
41.55
47.27
50.99
53.03
53.44
52.19
49.48
45.86
42.17
39.16
37.33
36.71
36.79
36.86
36.28
34.79
32.70
30.68
29.41
29.21
29.80
30.36
29.91
27.71
23.58
18.04
12.02
6.50
2.13
-1.01
-3.39
-5.83
-9.22
-14.25
-21.21
-29.77
-38.90
-46.86
-51.58
-51.18
-44.66
-32.45
-16.35
0.98
16.92
29.68
38.75
44.71
48.53
51.03
52.46
52.66
51.52
49.32
46.86
45.12
44.97
46.83
50.70
56.18
62.59
68.82
73.29
74.18
70.00
60.33
46.28
30.12
14.29
0.41
-11.29
-21.57
-31.28
-40.65
-49.11
-55.99
-61.06
-64.98
-68.73
-72.94
-77.49
-81.69
-84.84
-86.63
-87.00
-85.74
-82.21
-75.61
-65.60
-52.84
-38.89
-25.64
-14.41
-5.63
1.06
6.25
10.32
13.34
15.34
16.50
17.23
17.91
18.67
19.39
19.93
20.24
20.41
20.58
20.74
20.78
20.58
20.17
19.72
19.35
19.01
18.41
17.12
14.87
11.75
8.19
4.83
2.17
0.37
-0.88
-2.22
-4.37
-7.93
-13.21
-20.12
-28.18
-36.45
-43.65
-48.30
-49.22
-45.88
-38.75
-29.18
-18.93
-9.62
-2.21
3.10
6.59
8.63
9.47
9.25
8.12
6.50
4.95
4.07
4.17
5.18
6.75
8.40
9.77
10.69
11.16
11.19
10.83
10.06
8.85
7.19
5.07
2.55
-0.34
-3.59
-7.20
-11.24
-15.73
-20.61
-25.50
-29.76
-32.56
-33.04
-30.66
-25.46
-18.02
-9.36
-0.61
7.27
13.63
18.16
20.83
21.75
21.17
19.40
16.82
13.83
10.81
8.12
6.06
4.79
4.29
4.33
4.53
4.44
3.74
2.32
0.35
-1.89
-4.07
-6.00
-7.71
-9.35
-11.27
-13.83
-17.28
-21.64
-26.57
-31.39
-35.16
-36.92
-35.95
-32.07
-25.64
-17.50
-8.69
-0.29
6.86
12.18
15.49
16.90
16.74
15.48
13.59
11.52
9.56
7.88
6.58
5.72
5.29
5.18
5.10
4.73
3.78
2.16
0.05
-2.21
-4.26
-5.94
-7.31
-8.63
-10.26
-12.44
-15.31
-18.83
-22.79
-26.73
-29.94
-31.59
-30.89
-27.41
-21.28
-13.25
-4.50
3.76
10.52
15.27
17.94
18.79
18.17
16.47
14.05
11.30
8.62
6.40
4.92
4.33
4.51
5.14
5.76
5.91
5.28
3.72
1.30
-1.79
-5.27
-8.83
-12.23
-15.39
-18.48
-21.85
-25.85
-30.59
-35.67
-40.14
-42.69
-42.15
-37.91
-30.31
-20.57
-10.42
-1.59
4.77
8.33
9.57
9.43
8.93
8.58
8.26
7.30
4.90
0.67
-5.03
-10.92
-15.27
-16.34
-13.11
-5.67
4.79
16.33
26.96
35.17
40.29
42.36
41.98
39.71
35.88
30.28
22.07
9.64
-9.26
-36.67
-73.13
-116.27
-160.26
-196.87
-217.99
-218.61
-198.67
-162.98
-119.08
-74.31
-33.69
0.59
28.30
49.85
65.55
75.75
81.53
84.93
88.53
94.53
103.82
115.76
128.61
140.24
149.12
154.65
157.09
157.08
155.18
151.50
145.73
137.57
127.04
114.85
102.26
90.68
81.19
74.27
69.79
67.36
66.67
67.55
69.93
73.62
78.15
82.86
87.02
89.87
90.56
88.00
80.96
68.80
52.19
33.55
16.47
4.20
-2.23
-4.91
-8.53
-18.39
-37.82
-66.46
-100.21
-132.80
-158.25
-172.92
-176.27
-170.27
-158.17
-143.28
-128.35
-115.45
-106.12
-101.33
-101.03
-103.91
-107.44
-108.60
-105.04
-96.06
-82.89
-68.02
-53.95
-42.19
-33.00
-25.89
-20.47
-16.84
-15.38
-16.03
-17.77
-18.72
-16.83
-10.89
-1.17
10.69
22.49
32.37
39.47
44.01
46.82
48.76
50.27
51.29
51.43
50.37
47.98
44.48
40.27
35.74
31.18
26.79
22.79
19.63
17.99
18.60
21.87
27.58
34.80
42.06
47.93
51.31
51.77
49.31
44.22
36.79
27.39
16.65
5.65
-4.20
-11.64
-16.05
-17.84
-18.38
-19.40
-22.28
-27.47
-34.44
-42.00
-48.95
-54.42
-58.08
-60.03
-60.53
-59.99
-58.96
-58.12
-58.21
-59.67
-62.28
-64.96
-66.13
-64.26
-58.62
-49.60
-38.53
-26.99
-16.22
-6.88
0.84
6.73
10.35
11.17
9.01
4.56
-0.59
-4.41
-5.25
-2.60
2.43
7.42
9.33
5.74
-4.11
-18.76
-34.86
-48.40
-56.20
-57.20
-52.59
-45.05
-37.49
-31.98
-29.36
-29.60
-32.26
-36.67
-41.94
-46.61
-48.90
-47.17
-40.70
-30.17
-17.56
-5.42
4.13
10.04
12.56
12.87
12.49
12.69
14.16
16.86
20.09
22.61
22.99
20.01
13.18
3.03
-8.83
-20.21
-29.16
-34.67
-36.96
-37.30
-37.36
-38.54
-41.65
-46.83
-53.68
-61.51
-69.25
-75.52
-78.91
-78.45
-74.17
-67.19
-59.21
-51.69
-45.17
-39.22
-33.09
-26.55
-20.33
-15.76
-13.95
-14.94
-17.48
-19.49
-18.91
-14.37
-5.34
8.15
25.61
46.26
68.82
91.53
112.55
130.54
145.03
156.58
166.31
175.20
183.46
190.42
194.88
195.91
193.56
188.99
184.10
180.61
179.29
179.68
180.48
180.31
178.35
174.35
168.26
160.00
149.58
137.83
126.84
119.88
120.21
129.50
146.42
166.62
183.95
192.65
189.64
175.77
155.48
135.16
120.45
114.08
114.81
118.25
119.14
114.05
103.04
89.51
78.13
71.93
70.58
70.39
66.33
54.59
34.50
8.43
-19.83
-47.23
-72.82
-97.80
-124.19
-153.43
-185.65
-220.01
-255.33
-290.42
-323.78
-353.27
-376.09
-389.58
-392.36
-384.91
-369.26
-347.99
-323.14
-295.95
-267.34
-238.68
-211.97
-189.31
-171.91
-159.39
-149.92
-141.20
-131.58
-120.82
-109.99
-100.81
-94.91
-93.10
-95.00
-99.37
-104.58
-109.22
-112.51
-114.34
-114.95
-114.58
-113.30
-111.19
-108.33
-104.85
-100.72
-95.67
-89.57
-82.81
-76.65
-72.83
-72.55
-75.58
-79.78
-81.82
-78.81
-69.58
-55.24
-38.32
-21.41
-6.12
7.04
17.97
26.18
30.57
30.09
24.61
15.64
6.04
-0.86
-2.65
1.24
9.70
20.89
33.54
47.77
64.68
85.16
108.90
133.57
155.70
172.21
181.76
185.52
186.42
187.71
191.61
198.51
207.11
215.11
220.08
220.14
214.44
203.39
188.69
172.90
158.81
148.57
143.09
142.14
144.49
148.57
152.88
156.28
158.25
158.96
159.42
161.26
166.03
174.28
184.85
194.80
200.32
198.21
187.16
168.35
144.93
120.60
98.37
79.70
64.63
52.49
42.43
33.76
25.74
17.25
6.86
-6.90
-25.03
-47.73
-74.41
-103.75
-133.87
-162.49
-187.29
-206.37
-218.79
-224.73
-225.27
-221.77
-215.19
-205.85
-193.79
-179.48
-164.32
-150.56
-140.53
-135.62
-135.51
-138.13
-140.39
-139.33
-133.20
-121.93
-107.04
-90.77
-75.16
-61.43
-49.81
-39.94
-31.52
-24.72
-20.14
-18.37
-19.34
-22.04
-24.77
-25.72
-23.82
-19.06
-12.48
-5.63
0.09
4.06
6.60
8.85
12.32
18.40
28.02
41.51
58.77
79.26
101.87
124.77
145.21
159.94
166.01
161.86
148.09
127.52
104.23
82.06
63.31
47.97
34.09
18.56
-1.85
-30.19
-69.12
-120.66
-185.20
-260.00
-338.45
-410.68
-466.11
-496.91
-500.80
-481.68
-447.75
-408.06
-369.28
-334.23
-302.57
-272.59
-242.96
-213.31
-183.70
-153.75
-122.16
-87.18
-47.78
-4.59
39.80
81.49
116.72
143.30
161.29
172.71
180.46
186.94
193.35
199.51
204.56
207.81
209.31
209.85
210.46
211.72
213.42
214.51
213.71
210.13
203.72
195.41
186.50
177.98
169.91
161.41
151.21
138.41
122.95
105.74
88.12
71.25
55.76
41.80
29.27
18.30
9.24
2.57
-1.34
-2.58
-1.52
1.22
5.10
9.69
14.71
20.00
25.48
31.19
37.22
43.64
50.23
56.40
61.28
63.97
63.92
61.17
56.31
50.37
44.46
39.57
36.34
35.11
35.84
38.21
41.65
45.43
48.75
50.84
51.08
49.11
44.92
38.99
32.14
25.49
20.07
16.60
15.30
15.77
16.94
17.10
14.14
6.23
-7.15
-24.49
-42.23
-55.79
-61.34
-57.54
-46.27
-31.92
-19.50
-12.51
-11.77
-15.45
-20.48
-24.01
-24.54
-22.01
-17.13
-10.57
-2.46
7.37
19.00
31.82
44.46
55.27
63.00
67.47
69.67
71.14
73.15
75.86
78.17
78.19
74.21
65.59
53.24
39.26
26.11
15.66
8.51
3.86
-0.07
-5.16
-12.53
-22.04
-32.26
-41.00
-46.06
-45.95
-40.37
-30.39
-18.38
-7.66
-1.99
-4.59
-17.15
-38.89
-66.43
-94.53
-117.55
-131.21
-133.72
-125.80
-109.74
-88.04
-62.32
-33.07
-0.25
35.71
73.20
109.34
140.55
163.62
176.46
178.64
171.18
155.97
135.29
111.34
86.04
61.01
37.37
15.41
-5.70
-27.85
-53.31
-83.43
-117.52
-152.48
-183.54
-205.91
-216.57
-215.33
-204.73
-188.77
-171.47
-155.79
-143.20
-134.02
-127.89
-124.13
-121.95
-120.53
-119.36
-118.47
-118.61
-121.14
-127.47
-138.50
-154.06
-172.64
-191.40
-206.84
-215.60
-215.47
-205.81
-187.81
-163.79
-136.33
-107.43
-77.98
-47.72
-15.78
18.57
55.05
91.89
126.05
154.07
173.34
183.07
184.63
180.97
175.46
170.86
168.74
169.53
172.92
178.16
184.01
188.53
189.07
182.87
168.01
144.37
114.12
81.24
50.32
25.39
8.89
1.42
2.02
8.78
19.31
31.09
41.65
49.00
51.97
50.63
46.05
39.79
33.18
26.79
20.50
13.74
6.00
-3.10
-13.73
-25.91
-39.25
-52.73
-64.69
-73.18
-76.65
-74.60
-67.76
-57.80
-46.66
-36.10
-27.60
-22.44
-21.71
-26.02
-35.04
-47.29
-60.32
-71.33
-77.96
-78.81
-73.60
-62.95
-48.17
-30.86
-12.94
3.60
16.73
24.81
26.89
23.08
14.60
3.54
-7.76
-17.41
-24.54
-29.42
-33.21
-37.31
-42.85
-50.23
-58.99
-67.94
-75.46
-79.85
-79.70
-74.20
-63.42
-48.37
-30.94
-13.51
1.58
12.60
18.87
20.87
19.83
17.17
13.96
10.74
7.79
5.56
4.93
6.93
12.26
20.75
31.29
42.34
52.62
61.65
69.68
77.34
84.86
91.83
97.37
100.68
101.58
100.56
98.40
95.61
92.05
87.02
79.82
70.22
58.80
46.73
35.32
25.46
17.35
10.64
4.80
-0.56
-5.56
-10.06
-13.78
-16.18
-16.36
-12.99
-4.51
10.36
32.11
59.96
91.86
124.69
154.97
179.49
195.86
202.79
200.06
188.29
168.51
141.85
109.29
71.79
30.49
-12.95
-56.11
-96.06
-129.65
-154.33
-168.73
-173.29
-170.62
-165.40
-163.54
-170.55
-189.64
-220.03
-256.50
-290.56
-312.95
-316.74
-299.52
-263.98
-216.63
-165.45
-117.32
-76.47
-44.39
-20.93
-5.95
-0.35
-6.27
-25.90
-59.81
-105.54
-157.43
-207.68
-248.32
-273.32
-279.85
-268.48
-242.60
-207.51
-169.34
-133.78
-104.97
-84.23
-69.55
-56.11
-37.70
-9.02
32.38
85.01
143.95
202.51
254.46
295.52
323.88
339.62
343.94
338.63
326.40
311.30
298.74
294.64
303.52
326.58
360.41
397.65
429.14
447.06
447.37
430.79
402.11
367.98
334.46
305.15
280.56
258.76
236.97
213.15
186.90
159.56
133.37
110.35
91.29
75.22
59.54
40.71
15.27
-18.92
-61.76
-110.49
-160.02
-203.97
-236.19
-252.36
-251.39
-235.72
-210.99
-184.35
-162.50
-149.71
-146.89
-152.03
-161.46
-171.44
-179.08
-182.77
-182.02
-177.57
-171.56
-167.51
-169.55
-180.72
-201.09
-226.74
-250.50
-264.30
-262.12
-241.93
-206.17
-160.52
-111.83
-66.15
-27.37
3.07
25.82
42.53
54.86
63.74
69.19
70.80
68.30
62.04
52.90
41.78
29.14
15.02
-0.48
-16.62
-31.63
-43.24
-49.57
-50.03
-45.56
-38.39
-31.00
-25.33
-22.22
-21.47
-22.24
-23.74
-25.54
-27.80
-31.12
-36.04
-42.75
-50.81
-59.11
-66.12
-70.31
-70.50
-66.20
-57.61
-45.54
-31.33
-16.55
-2.82
8.47
16.48
21.11
22.91
22.96
22.36
21.94
22.03
22.52
23.14
23.57
23.57
22.98
21.73
19.90
17.73
15.60
13.92
12.87
12.21
11.25
8.96
4.30
-3.14
-12.82
-23.09
-31.59
-36.09
-35.28
-29.27
-19.45
-7.90
3.49
13.52
21.86
28.66
34.00
37.72
39.52
39.19
36.96
33.48
29.73
26.55
24.40
23.20
22.50
21.65
20.11
17.79
15.02
12.39
10.43
9.28
8.54
7.48
5.34
1.63
-3.62
-9.96
-16.54
-22.41
-26.62
-28.27
-26.69
-21.57
-13.19
-2.34
9.58
21.00
30.51
37.11
40.48
40.90
39.12
36.18
33.15
30.81
29.56
29.29
29.50
29.48
28.58
26.31
22.55
17.43
11.32
4.69
-1.92
-8.12
-13.73
-18.91
-23.98
-29.25
-34.59
-39.21
-41.75
-40.57
-34.58
-23.69
-9.11
7.02
22.29
34.77
43.43
48.17
49.51
48.14
44.68
39.71
33.86
27.89
22.60
18.61
16.15
14.98
14.55
14.23
13.51
12.16
10.15
7.61
4.74
1.60
-1.89
-6.00
-11.16
-17.61
-25.16
-32.93
-39.43
-42.83
-41.61
-35.11
-23.82
-9.29
6.37
21.07
33.22
42.05
47.43
49.72
49.39
46.93
42.84
37.68
32.16
27.08
23.10
20.53
19.19
18.46
17.55
15.85
13.25
10.06
6.84
4.06
1.82
-0.15
-2.32
-5.20
-9.22
-14.57
-21.13
-28.46
-35.62
-41.23
-43.75
-41.85
-34.98
-23.68
-9.57
5.14
18.32
28.51
35.18
38.63
39.55
38.62
36.31
32.84
28.45
23.55
18.72
14.56
11.49
9.59
8.66
8.41
8.54
8.84
9.13
9.19
8.74
7.50
5.28
2.10
-1.86
-6.28
-10.84
-15.37
-19.87
-24.53
-29.57
-35.03
-40.56
-45.26
-47.80
-46.82
-41.38
-31.48
-18.15
-3.20
11.36
23.82
33.20
39.16
41.92
41.88
39.49
35.29
29.89
24.10
18.77
14.57
11.83
10.42
9.82
9.38
8.60
7.25
5.29
2.91
0.28
-2.46
-5.23
-7.94
-10.63
-13.44
-16.63
-20.53
-25.29
-30.71
-36.13
-40.53
-42.73
-41.80
-37.24
-29.28
-18.70
-6.74
5.20
15.90
24.43
30.26
33.17
33.13
30.32
25.16
18.45
11.29
4.90
0.25
-2.27
-2.95
-2.54
-1.98
-2.02
-2.93
-4.59
-6.59
-8.44
-9.86
-10.95
-12.07
-13.85
-16.81
-21.22
-26.91
-33.23
-39.21
-43.77
-45.90
-44.85
-40.27
-32.33
-21.73
-9.70
2.35
13.07
21.52
27.24
30.29
30.89
29.42
26.26
21.85
16.79
11.83
7.67
4.77
3.22
2.63
2.35
1.72
0.32
-1.80
-4.27
-6.55
-8.23
-9.35
-10.33
-11.87
-14.58
-18.72
-24.06
-29.85
-35.04
-38.49
-39.23
-36.73
-30.96
-22.48
-12.30
-1.60
8.53
17.25
24.05
28.68
31.01
31.04
29.02
25.45
21.18
17.09
13.96
12.11
11.43
11.36
11.17
10.21
8.10
4.91
1.07
-2.77
-6.06
-8.45
-10.08
-11.43
-13.18
-15.91
-19.99
-25.34
-31.51
-37.58
-42.30
-44.25
-42.17
-35.48
-24.66
-11.18
2.87
15.47
25.33
32.06
36.03
37.89
38.11
36.96
34.55
31.15
27.23
23.43
20.28
18.10
16.83
16.22
15.87
15.48
14.79
13.62
11.87
9.50
6.58
3.26
-0.24
-3.71
-6.97
-9.98
-12.93
-16.20
-20.26
-25.42
-31.52
-37.77
-42.76
-44.82
-42.56
-35.40
-23.91
-9.70
5.06
18.29
28.56
35.25
38.52
38.92
37.17
34.01
30.18
26.52
23.77
22.40
22.33
22.98
23.43
22.85
20.92
17.84
14.20
10.69
7.77
5.49
3.61
1.77
-0.26
-2.49
-4.65
-6.34
-7.24
-7.30
-6.97
-7.12
-8.90
-13.20
-20.29
-29.52
-39.28
-47.36
-51.52
-50.13
-42.72
-30.14
-14.26
2.47
17.78
30.06
38.65
43.58
45.33
44.49
41.55
37.08
31.71
26.25
21.44
17.81
15.47
14.20
13.66
13.58
13.92
14.62
15.58
16.42
16.63
15.76
13.59
10.27
6.16
1.68
-2.77
-6.91
-10.58
-13.74
-16.55
-19.42
-22.86
-27.25
-32.43
-37.57
-41.24
-41.82
-38.19
-30.09
-18.45
-5.01
8.12
19.15
27.02
31.53
33.13
32.62
30.75
28.11
25.12
22.12
19.43
17.37
16.14
15.71
15.86
16.24
16.57
16.75
16.72
16.39
15.57
13.92
11.22
7.49
3.12
-1.32
-5.38
-8.83
-11.82
-14.68
-17.73
-21.13
-24.96
-29.24
-34.00
-39.07
-43.87
-47.29
-47.94
-44.64
-36.93
-25.49
-11.99
1.47
12.93
21.23
26.06
27.88
27.48
25.68
23.09
20.16
17.27
14.81
13.09
12.31
12.35
12.87
13.35
13.35
12.66
11.42
10.02
8.76
7.74
6.72
5.28
3.02
-0.17
-4.09
-8.28
-12.34
-16.05
-19.50
-22.97
-26.87
-31.53
-37.06
-43.14
-49.02
-53.59
-55.59
-54.04
-48.66
-39.92
-29.00
-17.36
-6.36
3.03
10.28
15.14
17.59
17.67
15.73
12.32
8.26
4.31
1.12
-1.05
-2.28
-2.85
-3.15
-3.51
-4.17
-5.33
-7.16
-9.75
-13.13
-17.30
-22.25
-28.02
-34.65
-42.14
-50.44
-59.45
-69.19
-79.74
-91.25
-103.63
-116.32
-128.26
-137.99
-144.19
-146.19
-144.47
-140.52
-136.57
-134.79
-136.74
-143.01
-153.16
-166.16
-180.82
-196.26
-212.01
-227.90
-243.70
-258.79
-271.87
-281.01
-283.92
-278.51
-263.50
-238.83
-205.77
-166.57
-123.78
-79.53
-34.96
9.82
55.55
103.32
154.13
208.30
264.99
321.73
374.43
418.24
448.81
463.96
464.63
454.69
439.48
423.79
410.20
398.60
387.12
373.65
357.04
337.58
316.45
294.69
272.62
249.72
225.14
198.51
170.50
142.92
118.17
98.41
84.70
76.65
72.69
70.76
69.22
67.43
65.73
64.95
65.63
67.47
69.33
69.84
68.18
64.62
60.54
57.73
57.65
60.66
66.01
72.21
77.75
81.57
83.06
81.82
77.29
68.69
55.09
35.79
10.27
-21.98
-61.50
-108.35
-161.11
-216.00
-266.82
-306.37
-328.73
-331.40
-316.18
-288.37
-254.50
-219.89
-187.20
-156.41
-125.91
-94.16
-60.74
-26.70
5.75
33.99
55.34
67.56
69.26
60.38
42.21
17.33
-11.07
-39.87
-66.53
-89.27
-106.94
-118.88
-124.94
-125.76
-122.91
-118.62
-115.13
-113.70
-114.17
-115.11
-114.57
-111.01
-103.91
-93.68
-81.26
-67.77
-54.16
-41.13
-29.16
-18.48
-9.26
-1.58
4.46
8.70
10.98
11.38
10.31
8.52
6.88
6.09
6.39
7.54
8.94
10.04
10.53
10.52
10.37
10.48
10.92
11.44
11.54
10.75
8.90
6.17
2.97
-0.25
-3.27
-6.10
-8.99
-12.18
-15.94
-20.34
-25.24
-30.19
-34.43
-37.01
-37.04
-33.98
-27.98
-19.78
-10.54
-1.49
6.48
12.84
17.47
20.39
21.68
21.47
19.95
17.53
14.78
12.31
10.59
9.80
9.77
10.14
10.44
10.35
9.77
8.76
7.42
5.77
3.74
1.23
-1.78
-5.12
-8.48
-11.60
-14.45
-17.28
-20.54
-24.68
-29.75
-35.24
-40.13
-43.21
-43.49
-40.56
-34.67
-26.68
-17.68
-8.80
-0.92
5.37
9.83
12.51
13.68
13.69
12.95
11.89
10.92
10.38
10.54
11.41
12.77
14.21
15.32
15.90
16.12
16.33
16.83
17.56
18.05
17.64
15.83
12.56
8.24
3.49
-1.10
-5.29
-9.14
-13.02
-17.37
-22.59
-28.85
-35.99
-43.29
-49.49
-52.96
-52.28
-46.82
-37.06
-24.57
-11.44
0.44
10.01
17.10
22.24
26.04
28.86
30.71
31.50
31.29
30.49
29.71
29.50
30.05
31.17
32.37
33.17
33.33
32.87
32.01
31.00
29.97
28.88
27.65
26.13
24.18
21.67
18.46
14.49
9.90
5.03
0.37
-3.65
-6.92
-9.69
-12.54
-16.13
-20.88
-26.82
-33.36
-39.47
-43.84
-45.21
-42.68
-36.11
-26.11
-13.98
-1.36
10.18
19.57
26.33
30.52
32.48
32.75
31.88
30.50
29.20
28.47
28.56
29.43
30.71
31.89
32.50
32.36
31.61
30.59
29.67
29.02
28.59
28.05
27.11
25.56
23.45
20.99
18.43
15.90
13.38
10.73
7.80
4.53
0.99
-2.64
-6.17
-9.40
-12.23
-14.62
-16.69
-18.66
-20.92
-23.87
-27.74
-32.40
-37.11
-40.73
-41.96
-39.81
-34.00
-25.10
-14.39
-3.47
6.26
13.90
19.19
22.32
23.74
23.91
23.18
21.76
19.85
17.71
15.71
14.22
13.58
13.87
14.93
16.36
17.61
18.22
17.86
16.54
14.44
11.85
8.99
5.98
2.76
-0.72
-4.50
-8.36
-12.00
-15.04
-17.28
-18.80
-19.90
-20.98
-22.42
-24.42
-27.01
-30.06
-33.32
-36.33
-38.39
-38.70
-36.46
-31.21
-23.15
-13.09
-2.30
7.87
16.38
22.71
26.77
28.74
28.94
27.73
25.50
22.79
20.15
18.08
16.83
16.38
16.43
16.61
16.56
16.14
15.39
14.48
13.60
12.81
12.02
10.99
9.43
7.09
3.89
0.02
-4.20
-8.24
-11.67
-14.31
-16.35
-18.44
-21.39
-25.83
-31.83
-38.74
-45.26
-49.79
-51.00
-48.04
-40.79
-29.75
-15.99
-0.98
13.55
25.93
34.90
39.91
41.32
40.11
37.50
34.53
31.86
29.70
28.10
27.04
26.44
26.19
25.96
25.41
24.31
22.65
20.64
18.59
16.70
14.98
13.22
11.14
8.49
5.20
1.34
-2.87
-7.12
-11.11
-14.63
-17.74
-20.72
-24.04
-28.16
-33.19
-38.71
-43.75
-46.99
-47.19
-43.64
-36.36
-26.18
-14.45
-2.65
7.95
16.55
22.81
26.73
28.57
28.66
27.49
25.60
23.60
22.02
21.19
21.09
21.42
21.70
21.46
20.49
18.85
16.90
15.10
13.81
13.12
12.81
12.41
11.40
9.42
6.41
2.65
-1.42
-5.33
-8.76
-11.71
-14.43
-17.38
-21.05
-25.81
-31.69
-38.37
-44.99
-50.37
-53.18
-52.34
-47.42
-38.80
-27.60
-15.38
-3.68
6.36
14.10
19.43
22.44
23.39
22.59
20.53
17.89
15.40
13.63
12.76
12.55
12.52
12.26
11.56
10.50
9.22
7.81
6.21
4.29
1.98
-0.65
-3.42
-6.14
-8.66
-10.95
-13.12
-15.32
-17.85
-21.09
-25.38
-30.73
-36.67
-42.06
-45.43
-45.37
-41.14
-32.96
-22.01
-10.05
1.13
10.23
16.67
20.54
22.44
23.07
23.04
22.71
22.20
21.57
20.84
20.13
19.61
19.38
19.46
19.67
19.77
19.51
18.71
17.29
15.26
12.67
9.61
6.22
2.63
-0.95
-4.44
-7.84
-11.33
-15.23
-19.87
-25.52
-32.06
-38.91
-44.96
-48.78
-49.01
-44.85
-36.41
-24.75
-11.52
1.49
12.79
21.54
27.49
30.88
32.18
31.97
30.74
28.91
26.81
24.61
22.45
20.45
18.71
17.30
16.16
15.16
14.04
12.62
10.76
8.48
5.90
3.12
0.26
-2.72
-5.83
-9.11
-12.54
-16.13
-20.01
-24.40
-29.61
-35.67
-42.15
-47.94
-51.52
-51.32
-46.45
-37.08
-24.47
-10.59
2.57
13.59
21.82
27.32
30.48
31.74
31.48
30.11
28.15
26.24
24.93
24.45
24.62
24.90
24.82
24.11
22.94
21.75
20.95
20.67
20.66
20.40
19.32
17.01
13.36
8.57
3.04
-2.71
-8.26
-13.31
-17.84
-22.12
-26.67
-32.16
-39.09
-47.43
-56.31
-63.92
-68.06
-66.78
-59.27
-46.28
-29.90
-12.86
2.43
14.59
23.39
29.37
33.25
35.55
36.43
35.97
34.40
32.30
30.42
29.45
29.69
30.91
32.45
33.54
33.56
32.37
30.34
28.11
26.22
24.84
23.74
22.39
20.27
17.10
12.87
7.85
2.41
-3.07
-8.27
-12.95
-16.94
-20.23
-23.01
-25.74
-29.04
-33.39
-38.82
-44.56
-49.05
-50.27
-46.48
-36.93
-22.38
-4.89
12.76
28.02
39.32
46.29
49.58
50.21
49.10
46.78
43.46
39.37
34.94
30.84
27.76
26.18
26.09
27.01
28.04
28.25
27.01
24.16
20.07
15.38
10.68
6.22
1.88
-2.70
-7.84
-13.57
-19.60
-25.39
-30.47
-34.62
-37.99
-41.08
-44.55
-48.94
-54.54
-61.41
-69.38
-78.25
-87.75
-97.39
-106.35
-113.49
-117.51
-117.36
-112.73
-104.19
-93.06
-81.12
-70.11
-61.45
-56.13
-54.71
-57.24
-63.01
-70.30
-76.16
-76.65
-67.63
-45.99
-10.98
34.93
86.19
135.52
176.13
203.90
218.81
224.92
228.77
237.03
254.01
280.29
312.62
345.29
372.13
388.41
391.91
383.12
364.46
339.33
311.10
282.59
255.70
231.35
209.53
189.25
169.01
147.14
122.19
93.19
59.85
22.63
-17.26
-58.01
-97.28
-132.46
-160.94
-180.49
-189.61
-187.55
-174.28
-150.67
-118.80
-82.36
-46.51
-16.90
1.79
7.47
1.22
-13.33
-31.65
-50.06
-66.79
-81.81
-95.84
-109.28
-121.56
-131.57
-138.20
-140.96
-140.09
-136.52
-131.75
-127.73
-126.82
-131.19
-142.25
-159.91
-182.10
-204.88
-223.24
-232.25
-228.52
-211.18
-182.36
-146.60
-109.65
-76.73
-51.21
-34.10
-24.33
-19.79
-18.27
-18.08
-18.13
-17.75
-16.45
-13.86
-9.99
-5.31
-0.71
2.80
4.50
4.34
2.89
1.12
-0.06
-0.23
0.49
1.44
1.80
0.92
-1.57
-5.71
-11.35
-18.21
-25.91
-33.73
-40.64
-45.33
-46.54
-43.54
-36.38
-25.97
-13.76
-1.40
9.79
18.95
25.67
29.85
31.60
31.14
28.87
25.39
21.40
17.61
14.55
12.52
11.54
11.39
11.65
11.82
11.46
10.25
8.17
5.42
2.33
-0.74
-3.70
-6.63
-9.80
-13.53
-18.13
-23.77
-30.47
-37.90
-45.25
-51.30
-54.50
-53.47
-47.47
-36.81
-22.79
-7.41
7.36
20.01
29.78
36.63
40.92
43.17
43.88
43.45
42.25
40.59
38.81
37.11
35.58
34.23
32.95
31.61
30.15
28.66
27.19
25.80
24.37
22.60
20.14
16.68
12.21
6.99
1.52
-3.72
-8.37
-12.44
-16.18
-20.09
-24.68
-30.32
-37.00
-44.26
-51.03
-55.85
-57.21
-54.00
-45.97
-33.94
-19.58
-4.99
8.04
18.40
25.85
30.75
33.73
35.40
36.13
36.19
35.78
35.20
34.67
34.35
34.25
34.26
34.26
34.18
34.06
33.99
34.01
34.01
33.72
32.75
30.81
27.86
24.11
20.02
16.00
12.27
8.73
5.11
1.10
-3.48
-8.53
-13.85
-19.15
-24.24
-29.00
-33.41
-37.62
-41.96
-46.92
-52.92
-60.00
-67.37
-73.46
-76.22
-73.78
-65.19
-50.75
-32.08
-11.60
8.05
24.62
36.79
44.18
47.37
47.48
45.82
43.52
41.27
39.38
37.88
36.74
35.97
35.65
35.82
36.42
37.34
38.42
39.57
40.69
41.56
41.84
41.20
39.40
36.43
32.47
27.76
22.46
16.67
10.46
4.00
-2.39
-8.31
-13.47
-17.72
-21.19
-24.14
-26.87
-29.77
-33.19
-37.50
-42.90
-49.20
-55.56
-60.55
-62.43
-59.76
-51.91
-39.44
-23.95
-7.62
7.50
19.98
29.23
35.33
38.71
39.87
39.23
37.14
34.07
30.59
27.38
25.03
23.85
23.81
24.52
25.47
26.17
26.31
25.80
24.70
23.18
21.38
19.45
17.41
15.20
12.68
9.60
5.82
1.31
-3.71
-8.76
-13.30
-16.96
-19.67
-21.77
-23.85
-26.52
-30.20
-34.92
-40.30
-45.49
-49.51
-51.20
-49.58
-44.14
-35.01
-23.07
-9.77
3.26
14.61
23.35
29.22
32.34
33.07
31.85
29.11
25.37
21.31
17.67
15.09
13.93
14.16
15.41
17.11
18.69
19.71
19.94
19.41
18.29
16.86
15.28
13.53
11.45
8.74
5.24
1.08
-3.36
-7.54
-11.06
-13.90
-16.45
-19.34
-23.20
-28.36
-34.66
-41.47
-47.75
-52.32
-53.99
-51.97
-45.93
-36.23
-23.85
-10.21
3.10
14.67
23.53
29.25
31.92
31.99
30.05
26.77
22.80
18.77
15.23
12.55
10.95
10.37
10.57
11.21
12.01
12.80
13.45
13.77
13.52
12.36
10.11
6.83
2.83
-1.41
-5.40
-8.88
-11.86
-14.57
-17.44
-20.91
-25.32
-30.80
-37.05
-43.32
-48.40
-50.87
-49.55
-43.87
-34.16
-21.59
-7.88
5.17
16.01
23.75
28.10
29.31
28.02
24.97
20.90
16.44
12.13
8.37
5.49
3.71
3.11
3.61
5.00
6.88
8.74
10.10
10.52
9.82
8.05
5.44
2.33
-1.03
-4.49
-8.04
-11.73
-15.64
-19.91
-24.68
-30.19
-36.48
-43.20
-49.40
-53.55
-54.08
-49.84
-40.69
-27.66
-12.68
2.11
14.85
24.48
30.78
34.09
35.07
34.29
32.23
29.20
25.56
21.72
18.22
15.55
14.00
13.55
13.90
14.57
15.04
14.91
13.96
12.13
9.49
6.18
2.38
-1.73
-6.01
-10.36
-14.80
-19.44
-24.54
-30.41
-37.25
-44.94
-52.83
-59.67
-63.89
-64.10
-59.62
-50.93
-39.53
-27.54
-16.97
-9.28
-5.10
-4.42
-6.87
-11.89
-18.77
-26.64
-34.39
-40.76
-44.60
-45.17
-42.31
-36.50
-28.68
-19.95
-11.28
-3.25
3.86
10.06
15.30
19.43
22.15
23.22
22.60
20.60
17.78
14.71
11.72
8.82
5.76
2.30
-1.44
-4.86
-6.94
-6.62
-3.29
3.00
11.55
21.38
31.60
41.61
50.91
58.88
64.62
67.21
66.21
62.13
56.38
50.82
47.00
45.50
45.88
47.06
47.91
47.79
46.67
44.89
42.90
41.03
39.43
38.22
37.51
37.38
37.67
37.97
37.53
35.62
31.87
26.42
19.95
13.24
6.78
0.72
-5.02
-10.28
-14.40
-16.41
-15.55
-11.80
-6.10
-0.06
4.87
7.97
9.58
10.68
12.29
14.80
17.93
20.96
23.14
24.13
23.97
22.94
21.26
19.02
16.28
13.54
11.83
12.48
16.56
24.10
33.88
43.70
51.23
54.97
54.79
51.81
47.60
43.36
39.42
35.36
30.53
24.57
17.79
11.04
5.39
1.80
0.82
2.41
5.92
10.27
14.18
16.56
16.74
14.45
9.72
2.65
-6.64
-17.85
-30.32
-42.87
-54.00
-62.23
-66.62
-67.11
-64.47
-59.95
-54.86
-50.04
-45.80
-41.94
-38.19
-34.37
-30.66
-27.43
-25.04
-23.63
-22.95
-22.50
-21.72
-20.41
-18.75
-17.28
-16.63
-17.17
-18.75
-20.69
-21.88
-21.16
-17.68
-11.10
-1.71
9.61
21.72
33.39
43.52
51.43
56.83
59.91
61.24
61.63
61.83
62.40
63.63
65.53
68.00
70.88
73.99
77.16
80.12
82.62
84.54
85.85
86.58
86.68
85.80
83.32
78.53
70.88
60.39
47.67
33.74
19.72
6.49
-5.63
-16.74
-27.15
-37.04
-46.16
-53.83
-59.20
-61.65
-61.12
-58.27
-54.24
-50.32
-47.48
-46.15
-46.29
-47.56
-49.56
-52.07
-54.93
-58.01
-61.06
-63.70
-65.52
-66.25
-65.96
-65.06
-64.21
-64.09
-65.11
-67.25
-70.12
-73.23
-76.20
-78.94
-81.59
-84.34
-87.22
-90.08
-92.63
-94.55
-95.56
-95.33
-93.46
-89.47
-83.03
-74.17
-63.42
-51.67
-39.91
-29.04
-19.60
-11.89
-6.17
-2.67
-1.60
-2.90
-6.03
-9.87
-12.83
-13.28
-9.95
-2.51
8.35
21.05
33.60
44.30
52.18
57.27
60.45
63.02
66.31
71.40
78.87
88.82
100.87
114.24
127.81
140.25
150.00
155.41
154.95
147.36
132.01
109.05
79.53
45.50
10.02
-23.08
-50.01
-67.91
-75.77
-74.78
-67.99
-59.27
-52.07
-48.53
-49.32
-54.06
-62.22
-73.65
-88.38
-106.10
-125.36
-143.42
-156.67
-161.99
-158.02
-146.07
-129.81
-113.84
-101.83
-94.98
-91.77
-89.31
-85.25
-79.22
-72.99
-69.16
-69.39
-73.33
-78.61
-82.19
-81.84
-77.07
-68.96
-59.19
-48.91
-38.35
-26.89
-13.77
1.35
18.02
35.25
51.66
65.93
76.89
83.92
86.96
86.72
84.35
81.08
77.71
74.22
69.95
64.06
56.13
46.52
36.43
27.38
20.65
16.80
15.59
16.12
17.30
18.25
18.50
18.06
17.43
17.57
19.60
24.52
32.78
43.85
56.36
68.42
78.25
84.66
87.09
85.44
79.68
69.73
55.62
37.91
18.13
-1.35
-17.87
-29.32
-34.94
-35.55
-33.12
-29.90
-27.52
-26.45
-26.19
-25.98
-25.31
-24.25
-23.20
-22.39
-21.68
-20.68
-19.22
-17.69
-16.82
-17.05
-18.01
-18.39
-16.60
-11.68
-4.01
4.82
12.68
17.87
19.68
18.26
14.27
8.54
2.00
-4.35
-9.59
-13.18
-15.39
-17.20
-19.71
-23.23
-26.86
-28.77
-27.40
-22.56
-15.79
-9.74
-6.77
-8.00
-13.04
-20.82
-30.39
-41.38
-53.72
-67.17
-81.18
-95.17
-109.13
-123.73
-139.63
-156.27
-171.09
-179.91
-178.51
-164.91
-140.55
-110.12
-79.78
-54.65
-36.84
-24.94
-14.91
-1.76
18.41
47.10
82.94
122.25
160.17
191.97
213.74
222.69
216.97
195.81
160.01
112.63
59.37
7.89
-33.76
-59.26
-65.59
-53.52
-26.83
9.23
49.85
91.73
133.26
173.66
211.67
244.79
269.25
280.96
277.13
257.33
223.70
180.19
131.65
83.26
40.57
9.30
-5.64
-1.90
18.39
48.28
77.96
98.25
103.91
94.96
75.43
50.46
23.86
-2.77
-28.98
-53.98
-75.83
-92.15
-101.56
-104.83
-104.72
-104.39
-105.75
-108.54
-110.83
-110.41
-106.25
-99.09
-90.93
-83.99
-79.57
-77.64
-77.08
-76.48
-74.88
-72.15
-68.93
-66.17
-64.62
-64.60
-66.03
-68.62
-72.10
-76.11
-80.12
-83.12
-83.69
-80.42
-72.46
-60.07
-44.57
-27.97
-12.20
1.45
12.60
21.53
28.73
34.46
38.61
40.94
41.31
40.02
37.74
35.38
33.66
32.96
33.11
33.64
33.95
33.57
32.37
30.59
28.62
26.78
25.11
23.30
20.86
17.37
12.72
7.19
1.36
-4.14
-8.78
-12.42
-15.23
-17.71
-20.53
-24.33
-29.50
-35.95
-42.91
-48.97
-52.44
-51.75
-46.17
-36.06
-22.89
-8.68
4.56
15.47
23.59
29.12
32.62
34.59
35.27
34.81
33.42
31.53
29.74
28.65
28.46
29.00
29.73
30.05
29.50
27.95
25.67
23.09
20.71
18.84
17.47
16.29
14.77
12.41
8.94
4.48
-0.52
-5.41
-9.71
-13.18
-15.96
-18.37
-20.85
-23.85
-27.84
-33.15
-39.76
-47.06
-53.69
-57.90
-57.96
-52.98
-43.27
-30.32
-16.36
-3.50
6.87
14.36
19.47
23.06
25.87
28.25
30.18
31.37
31.70
31.34
30.68
30.20
30.22
30.71
31.32
31.66
31.43
30.62
29.45
28.14
26.75
25.14
23.07
20.40
17.17
13.62
9.98
6.37
2.75
-1.03
-5.01
-9.02
-12.70
-15.71
-17.96
-19.79
-21.93
-25.20
-30.18
-36.77
-44.08
-50.52
-54.23
-53.69
-48.22
-38.29
-25.41
-11.67
0.94
11.10
18.40
23.26
26.51
28.95
31.03
32.84
34.24
35.10
35.37
35.15
34.61
33.86
32.94
31.82
30.44
28.84
27.10
25.33
23.60
22.00
20.51
19.06
17.49
15.63
13.29
10.33
6.68
2.42
-2.20
-6.83
-11.07
-14.62
-17.42
-19.73
-22.04
-24.94
-28.86
-33.91
-39.75
-45.58
-50.26
-52.55
-51.38
-46.20
-37.26
-25.50
-12.49
0.11
10.92
19.18
24.74
27.85
28.89
28.19
26.11
23.13
19.88
17.12
15.32
14.58
14.55
14.61
14.25
13.23
11.68
9.90
8.21
6.68
5.17
3.40
1.14
-1.68
-4.90
-8.22
-11.33
-14.01
-16.36
-18.68
-21.44
-25.07
-29.74
-35.12
-40.38
-44.29
-45.53
-43.16
-36.92
-27.36
-15.75
-3.73
7.22
16.02
22.21
25.79
27.15
26.82
25.43
23.61
21.88
20.56
19.74
19.24
18.80
18.20
17.33
16.30
15.24
14.30
13.49
12.67
11.59
10.01
7.74
4.74
1.11
-2.92
-7.03
-10.94
-14.50
-17.68
-20.71
-23.99
-27.90
-32.65
-38.02
-43.18
-46.83
-47.47
-43.93
-35.87
-24.00
-9.94
4.29
16.88
26.68
33.33
37.09
38.51
38.16
36.50
33.88
30.72
27.50
24.68
22.61
21.39
20.85
20.61
20.35
19.91
19.37
18.89
18.55
18.17
17.32
15.47
12.31
7.86
2.59
-2.84
-7.81
-11.94
-15.16
-17.65
-19.85
-22.27
-25.41
-29.56
-34.62
-39.96
-44.45
-46.68
-45.50
-40.36
-31.65
-20.51
-8.55
2.69
12.09
19.14
23.88
26.68
28.04
28.39
28.11
27.54
26.94
26.55
26.49
26.69
26.92
26.85
26.18
24.78
22.76
20.35
17.83
15.39
13.07
10.72
8.13
5.09
1.46
-2.72
-7.27
-11.90
-16.26
-20.10
-23.42
-26.53
-29.96
-34.25
-39.50
-45.18
-50.04
-52.50
-51.17
-45.40
-35.57
-23.04
-9.60
2.93
13.26
20.78
25.42
27.46
27.37
25.62
22.73
19.25
15.72
12.58
10.14
8.46
7.48
7.02
6.88
6.90
6.88
6.63
5.97
4.75
2.95
0.64
-1.99
-4.76
-7.54
-10.30
-13.13
-16.26
-19.93
-24.35
-29.51
-34.98
-39.85
-42.85
-42.74
-38.72
-30.89
-20.20
-8.30
3.07
12.50
19.22
23.16
24.70
24.49
23.17
21.36
19.53
18.01
17.02
16.60
16.70
17.20
17.96
18.82
19.52
19.79
19.31
17.79
15.17
11.58
7.30
2.70
-1.90
-6.29
-10.29
-13.83
-16.92
-19.72
-22.49
-25.62
-29.27
-33.15
-36.37
-37.64
-35.73
-30.11
-21.27
-10.65
-0.08
8.90
15.52
19.86
22.52
24.15
25.11
25.47
25.21
24.35
23.15
21.92
20.92
20.21
19.66
18.95
17.81
16.02
13.58
10.73
7.89
5.46
3.71
2.61
1.90
1.24
0.36
-0.83
-2.38
-4.37
-7.08
-10.95
-16.32
-23.18
-30.92
-38.27
-43.59
-45.24
-42.19
-34.41
-22.90
-9.48
3.76
15.06
23.40
28.55
30.88
31.04
29.70
27.45
24.79
22.17
19.98
18.48
17.73
17.56
17.70
17.88
17.91
17.74
17.32
16.61
15.43
13.60
10.98
7.60
3.72
-0.32
-4.17
-7.65
-10.80
-13.88
-17.22
-21.14
-25.89
-31.38
-37.18
-42.36
-45.61
-45.56
-41.22
-32.47
-20.24
-6.39
6.91
17.79
25.22
29.14
30.25
29.55
27.91
25.88
23.71
21.55
19.53
17.90
16.90
16.60
16.86
17.29
17.49
17.21
16.47
15.39
14.10
12.56
10.51
7.69
3.98
-0.46
-5.26
-9.94
-14.20
-18.01
-21.63
-25.51
-30.00
-35.12
-40.35
-44.65
-46.65
-45.18
-39.70
-30.59
-19.18
-7.25
3.48
11.86
17.51
20.70
22.07
22.21
21.48
20.02
17.86
15.21
12.43
10.10
8.78
8.75
9.86
11.56
13.03
13.52
12.62
10.38
7.24
3.83
0.67
-2.03
-4.43
-6.91
-9.99
-14.03
-19.13
-25.05
-31.16
-36.50
-39.96
-40.46
-37.36
-30.64
-21.07
-10.00
0.99
10.55
17.78
22.44
24.69
24.97
23.77
21.50
18.54
15.19
11.78
8.62
6.00
4.13
3.03
2.56
2.38
2.18
1.64
0.71
-0.56
-2.06
-3.65
-5.30
-7.01
-8.80
-10.73
-12.93
-15.69
-19.31
-23.92
-29.17
-34.13
-37.45
-37.77
-34.28
-27.14
-17.44
-6.79
3.22
11.48
17.55
21.52
23.71
24.44
23.90
22.32
19.99
17.40
15.10
13.52
12.83
12.77
12.87
12.61
11.66
9.97
7.78
5.44
3.25
1.34
-0.37
-2.10
-4.11
-6.61
-9.81
-13.89
-18.93
-24.83
-31.07
-36.75
-40.65
-41.56
-38.73
-32.15
-22.66
-11.69
-0.86
8.58
15.97
21.29
24.83
26.96
27.91
27.76
26.58
24.58
22.15
19.78
17.90
16.74
16.18
15.90
15.49
14.58
13.00
10.72
7.90
4.73
1.44
-1.87
-5.13
-8.43
-11.93
-15.83
-20.30
-25.36
-30.78
-35.99
-40.13
-42.16
-41.12
-36.50
-28.41
-17.71
-5.76
5.94
16.18
24.28
30.15
34.02
36.20
36.96
36.41
34.72
32.17
29.28
26.58
24.50
23.17
22.38
21.76
20.99
19.93
18.60
17.13
15.54
13.72
11.40
8.36
4.57
0.22
-4.22
-8.35
-11.86
-14.83
-17.58
-20.60
-24.40
-29.28
-35.22
-41.73
-47.85
-52.23
-53.49
-50.52
-43.01
-31.57
-17.69
-3.30
9.79
20.39
28.06
33.00
35.66
36.45
35.66
33.58
30.67
27.61
25.05
23.49
22.93
23.00
23.13
22.84
22.00
20.77
19.38
18.03
16.67
15.03
12.84
9.97
6.46
2.60
-1.24
-4.73
-7.63
-9.94
-11.79
-13.49
-15.39
-17.75
-20.60
-23.70
-26.59
-28.77
-29.90
-29.97
-29.22
-28.13
-27.24
-26.94
-27.30
-28.02
-28.40
-27.59
-24.87
-19.93
-13.06
-4.99
3.38
11.40
18.91
26.11
33.35
40.74
48.02
54.57
59.75
63.07
64.45
64.13
62.52
59.99
56.84
53.20
49.21
44.97
40.64
36.38
32.31
28.49
24.91
21.55
18.36
15.31
12.36
9.47
6.65
3.97
1.49
-0.78
-2.91
-5.17
-7.88
-11.25
-15.33
-19.92
-24.70
-29.36
-33.66
-37.54
-41.02
-44.22
-47.27
-50.38
-53.70
-57.22
-60.61
-63.19
-64.06
-62.41
-57.82
-50.49
-41.23
-31.27
-21.93
-14.25
-8.83
-5.77
-4.83
-5.58
-7.61
-10.54
-14.02
-17.63
-20.76
-22.69
-22.81
-20.78
-16.74
-11.23
-4.94
1.50
7.77
13.83
19.83
25.99
32.46
39.36
46.69
54.40
62.25
69.82
76.42
81.27
83.61
82.92
79.06
72.30
63.24
52.80
41.93
31.46
21.92
13.43
5.73
-1.67
-9.23
-17.27
-25.75
-34.25
-41.95
-47.79
-50.72
-49.98
-45.43
-37.73
-28.13
-18.17
-9.21
-2.02
3.21
6.72
8.81
9.66
9.32
7.83
5.49
2.87
0.69
-0.44
-0.23
1.18
3.34
5.71
7.83
9.45
10.50
11.06
11.25
11.17
10.91
10.49
9.88
8.99
7.72
6.03
4.03
1.84
-0.37
-2.53
-4.75
-7.24
-10.22
-13.84
-18.08
-22.76
-27.62
-32.33
-36.50
-39.69
-41.36
-41.02
-38.30
-33.14
-25.85
-17.08
-7.73
1.22
8.92
14.84
18.75
20.78
21.27
20.66
19.33
17.56
15.52
13.30
11.04
8.90
7.12
5.92
5.38
5.37
5.59
5.71
5.46
4.81
3.96
3.14
2.51
2.04
1.50
0.65
-0.64
-2.38
-4.40
-6.53
-8.66
-10.79
-12.96
-15.19
-17.49
-19.85
-22.28
-24.82
-27.39
-29.72
-31.30
-31.48
-29.66
-25.53
-19.23
-11.40
-2.98
5.08
11.99
17.29
20.88
22.85
23.43
22.82
21.25
18.97
16.28
13.48
10.88
8.70
7.01
5.81
5.03
4.55
4.30
4.15
4.00
3.75
3.37
2.89
2.39
1.91
1.40
0.68
-0.44
-2.12
-4.34
-6.95
-9.84
-12.93
-16.31
-20.05
-24.21
-28.61
-32.90
-36.43
-38.45
-38.24
-35.29
-29.52
-21.40
-11.95
-2.44
5.90
12.27
16.46
18.82
19.82
19.86
19.11
17.56
15.30
12.65
10.14
8.26
7.28
7.11
7.37
7.62
7.57
7.21
6.67
6.11
5.62
5.11
4.35
3.10
1.19
-1.37
-4.35
-7.39
-10.13
-12.34
-14.13
-15.79
-17.76
-20.35
-23.62
-27.36
-31.12
-34.33
-36.36
-36.58
-34.52
-29.93
-23.01
-14.42
-5.17
3.68
11.14
16.62
19.88
21.10
20.65
18.96
16.52
13.76
11.03
8.60
6.69
5.43
4.81
4.82
5.31
6.11
6.99
7.78
8.29
8.36
7.85
6.60
4.55
1.68
-1.80
-5.60
-9.38
-12.87
-16.04
-19.05
-22.27
-26.02
-30.47
-35.34
-39.97
-43.37
-44.58
-42.87
-38.06
-30.54
-21.13
-10.89
-0.80
8.30
15.83
21.38
24.79
26.12
25.65
23.96
21.68
19.46
17.75
16.72
16.27
16.06
15.76
15.18
14.30
13.30
12.37
11.56
10.78
9.73
8.08
5.57
2.22
-1.81
-6.15
-10.40
-14.25
-17.53
-20.29
-22.80
-25.49
-28.78
-32.87
-37.48
-41.79
-44.58
-44.63
-41.15
-34.15
-24.53
-13.79
-3.50
5.13
11.55
15.73
18.02
18.79
18.32
16.79
14.45
11.72
9.19
7.46
6.91
7.58
9.05
10.66
11.71
11.79
10.74
8.71
5.92
2.52
-1.46
-5.90
-10.39
-14.26
-16.62
-16.77
-14.52
-10.33
-5.26
-0.62
2.39
3.01
0.99
-3.34
-9.19
-15.38
-20.46
-22.99
-21.93
-17.00
-8.72
1.61
12.34
21.97
29.49
34.52
37.16
37.84
36.96
34.87
31.88
28.35
24.72
21.49
19.09
17.78
17.45
17.73
18.10
18.07
17.45
16.26
14.80
13.30
11.87
10.30
8.18
5.14
1.01
-4.00
-9.41
-14.61
-19.13
-22.83
-25.85
-28.61
-31.63
-35.36
-40.12
-45.88
-52.13
-57.89
-61.79
-62.40
-58.72
-50.51
-38.53
-24.29
-9.66
3.70
14.74
23.10
29.03
32.99
35.43
36.61
36.66
35.72
34.08
32.18
30.47
29.29
28.63
28.19
27.53
26.31
24.48
22.29
20.17
18.49
17.29
16.19
14.65
12.14
8.50
4.05
-0.64
-4.97
-8.64
-11.82
-15.01
-18.80
-23.71
-29.98
-37.48
-45.72
-53.73
-60.11
-63.28
-61.83
-54.95
-42.93
-27.11
-9.59
7.34
21.72
32.33
38.68
40.86
39.39
35.05
28.94
22.34
16.57
12.71
11.28
12.09
14.34
16.90
18.80
19.54
19.16
18.06
16.65
15.12
13.33
11.02
7.96
4.23
0.14
-3.86
-7.50
-10.70
-13.64
-16.66
-20.16
-24.50
-29.95
-36.46
-43.50
-49.96
-54.21
-54.56
-49.82
-39.84
-25.72
-9.50
6.45
20.10
30.22
36.54
39.46
39.71
38.05
35.12
31.44
27.52
23.85
20.87
18.83
17.75
17.42
17.51
17.70
17.80
17.67
17.19
16.17
14.39
11.71
8.20
4.14
-0.10
-4.29
-8.41
-12.71
-17.54
-23.21
-29.85
-37.35
-45.21
-52.46
-57.68
-59.23
-55.70
-46.62
-32.68
-15.80
1.45
16.71
28.45
36.21
40.39
41.75
40.95
38.42
34.48
29.59
24.45
19.88
16.57
14.86
14.66
15.51
16.78
17.84
18.25
17.75
16.28
13.88
10.65
6.74
2.32
-2.41
-7.19
-11.86
-16.41
-21.11
-26.40
-32.70
-40.10
-48.00
-55.01
-59.16
-58.63
-52.33
-40.52
-24.82
-7.78
7.97
20.54
29.07
33.73
35.26
34.47
32.00
28.34
23.91
19.25
14.89
11.25
8.45
6.32
4.53
2.84
1.20
-0.16
-0.89
-0.73
0.40
2.36
4.79
7.30
9.61
11.53
12.96
13.73
13.50
11.76
7.98
1.91
-6.13
-15.01
-22.86
-27.52
-27.21
-21.25
-10.36
3.46
17.63
29.83
38.65
43.71
45.46
44.63
41.76
37.20
31.18
24.14
16.89
10.46
5.79
3.40
3.19
4.48
6.30
7.67
7.97
6.98
4.95
2.29
-0.62
-3.56
-6.52
-9.65
-13.14
-17.16
-21.87
-27.38
-33.71
-40.51
-46.94
-51.63
-52.99
-49.70
-41.33
-28.62
-13.34
2.24
16.05
26.76
33.90
37.62
38.39
36.65
32.80
27.31
20.89
14.49
9.11
5.52
3.96
4.11
5.15
6.12
6.27
5.30
3.36
0.92
-1.57
-3.84
-5.94
-8.13
-10.82
-14.36
-18.96
-24.63
-31.04
-37.50
-42.86
-45.69
-44.61
-38.76
-28.18
-13.99
1.93
17.38
30.47
40.10
45.98
48.48
48.28
46.06
42.43
37.88
33.02
28.50
24.92
22.61
21.43
20.79
19.87
17.95
14.57
9.79
3.92
-2.61
-9.43
-16.32
-23.08
-29.48
-35.26
-40.31
-44.74
-49.04
-53.77
-59.16
-64.73
-69.07
-70.18
-66.09
-55.77
-39.65
-19.61
1.51
20.74
35.75
45.30
49.24
48.36
43.87
37.14
29.39
21.62
14.52
8.50
3.76
0.43
-1.42
-1.80
-0.98
0.48
1.76
1.99
0.52
-2.87
-8.10
-14.87
-22.73
-31.18
-39.36
-46.19
-50.60
-52.10
-51.12
-48.96
-47.21
-46.84
-47.61
-48.05
-46.18
-40.41
-30.30
-16.73
-1.49
13.44
26.48
36.75
44.08
48.73
51.14
51.82
51.10
49.19
46.28
42.60
38.54
34.60
31.32
29.04
27.92
27.78
28.26
28.84
29.06
28.54
27.10
24.81
21.88
18.61
15.21
11.77
8.26
4.60
0.63
-3.82
-9.04
-15.28
-22.47
-29.96
-36.29
-39.55
-37.94
-30.64
-18.25
-2.79
12.97
26.44
35.99
41.28
42.95
42.15
39.96
37.12
33.99
30.77
27.69
25.03
23.11
22.09
21.82
21.85
21.62
20.62
18.62
15.76
12.38
8.86
5.41
2.00
-1.58
-5.53
-9.86
-14.44
-19.16
-24.09
-29.61
-36.14
-43.72
-51.62
-58.25
-61.60
-59.97
-52.64
-40.37
-25.18
-9.81
3.19
12.04
16.11
15.85
12.37
7.07
1.11
-4.79
-10.45
-16.01
-21.59
-27.08
-32.02
-35.90
-38.51
-40.26
-42.14
-45.41
-51.01
-59.06
-68.86
-79.14
-88.75
-97.09
-104.20
-110.26
-114.98
-117.39
-115.91
-109.11
-96.45
-78.69
-57.37
-34.08
-9.49
16.49
43.98
72.04
98.18
119.21
132.85
139.21
140.97
141.97
145.11
150.66
156.44
159.47
158.38
154.61
151.70
152.77
157.98
163.44
162.30
147.75
116.09
68.77
12.15
-44.70
-93.08
-127.28
-145.58
-149.60
-142.28
-126.19
-102.31
-70.45
-30.22
17.65
70.74
125.07
176.02
219.43
252.29
273.01
281.41
278.47
266.28
247.83
226.55
205.73
187.94
174.36
164.73
157.56
150.67
141.84
129.37
112.33
90.82
65.96
39.80
14.76
-7.08
-24.82
-39.11
-51.82
-65.12
-80.25
-96.91
-113.44
-127.87
-139.10
-147.49
-154.53
-161.99
-170.84
-180.83
-190.67
-198.64
-203.17
-203.07
-197.70
-186.94
-171.22
-151.63
-129.78
-107.53
-86.55
-67.92
-52.04
-38.85
-28.00
-19.23
-12.32
-7.10
-3.36
-0.87
0.50
0.85
0.20
-1.28
-3.14
-4.69
-5.25
-4.46
-2.49
-0.06
1.91
2.68
1.96
0.03
-2.53
-5.13
-7.38
-9.26
-11.05
-13.27
-16.34
-20.46
-25.43
-30.56
-34.86
-37.22
-36.79
-33.24
-26.91
-18.80
-10.23
-2.50
3.45
7.20
8.89
8.98
8.08
6.78
5.50
4.43
3.58
2.83
1.99
0.88
-0.64
-2.53
-4.61
-6.65
-8.44
-9.85
-10.95
-11.96
-13.17
-14.78
-16.87
-19.26
-21.54
-23.19
-23.66
-22.57
-19.77
-15.42
-9.95
-3.97
1.99
7.61
12.99
18.53
24.78
32.09
40.38
49.00
56.92
63.17
67.23
69.13
69.39
68.70
67.58
66.40
65.39
64.75
64.64
64.92
64.94
63.59
59.63
52.32
41.87
29.54
17.27
7.03
0.22
-2.54
-1.30
3.58
11.68
22.55
35.51
49.35
62.24
71.98
76.35
73.88
64.23
48.75
30.38
13.01
0.37
-5.24
-3.94
1.58
6.73
6.52
-2.87
-22.77
-51.46
-84.49
-115.54
-137.75
-145.37
-135.39
-108.81
-70.82
-29.31
7.72
34.79
50.55
57.25
58.75
58.18
56.45
52.49
44.67
32.48
17.23
1.44
-12.53
-23.76
-33.06
-42.22
-52.77
-65.02
-77.79
-89.23
-97.87
-103.57
-107.57
-111.70
-117.27
-124.27
-131.44
-137.13
-140.35
-141.29
-141.18
-141.29
-141.85
-141.63
-138.31
-129.41
-113.48
-90.86
-63.73
-35.44
-9.50
11.51
26.54
36.16
42.01
46.02
49.69
53.82
58.40
62.90
66.69
69.23
70.27
69.85
68.17
65.56
62.31
58.69
54.78
50.47
45.44
39.24
31.38
21.43
9.18
-5.22
-21.19
-37.54
-52.47
-63.70
-68.95
-66.51
-56.06
-38.95
-18.13
2.66
20.06
31.99
38.05
39.21
37.05
33.00
28.04
22.67
17.30
12.38
8.41
5.58
3.43
0.84
-3.68
-11.24
-21.97
-34.66
-47.09
-56.97
-62.70
-63.91
-61.36
-56.39
-50.17
-43.37
-36.11
-28.31
-19.99
-11.46
-3.28
3.88
9.37
12.73
13.78
12.71
10.18
7.12
4.46
2.78
2.24
2.54
3.30
4.22
5.15
5.96
6.26
5.44
2.71
-2.44
-9.98
-19.12
-28.40
-36.09
-40.57
-40.74
-36.25
-27.58
-15.83
-2.53
10.74
22.56
31.82
37.85
40.43
39.78
36.51
31.54
25.92
20.63
16.33
13.26
11.22
9.78
8.44
6.85
4.90
2.69
0.42
-1.73
-3.74
-5.78
-8.24
-11.54
-15.92
-21.29
-27.05
-32.15
-35.31
-35.39
-31.66
-24.13
-13.55
-1.28
11.06
21.94
30.22
35.40
37.56
37.16
34.85
31.21
26.71
21.78
16.83
12.33
8.71
6.16
4.55
3.46
2.33
0.71
-1.53
-4.24
-7.16
-10.14
-13.36
-17.24
-22.23
-28.38
-35.11
-41.09
-44.59
-44.10
-38.74
-28.66
-14.94
0.78
16.63
30.91
42.22
49.63
52.75
51.82
47.63
41.44
34.53
27.95
22.30
17.70
13.99
11.03
8.69
6.90
5.55
4.35
2.90
0.73
-2.48
-6.93
-12.69
-19.69
-27.79
-36.53
-44.87
-51.16
-53.31
-49.57
-39.37
-23.91
-5.98
10.92
23.91
31.67
34.69
34.53
32.88
30.64
27.88
24.20
19.42
13.95
8.60
4.09
0.58
-2.33
-5.45
-9.41
-14.41
-20.19
-26.18
-31.92
-37.26
-42.48
-48.18
-55.09
-63.86
-74.80
-87.55
-101.04
-113.45
-122.65
-126.82
-125.17
-118.33
-108.31
-97.80
-89.34
-84.42
-83.19
-84.56
-86.61
-87.00
-83.27
-73.10
-54.70
-27.45
7.72
48.28
90.84
132.27
170.62
205.32
236.44
263.60
285.30
299.16
302.96
295.85
278.99
255.24
228.16
200.88
175.43
152.72
133.01
116.35
102.94
93.09
86.99
84.41
84.55
86.09
87.47
87.26
84.62
79.35
71.71
62.02
50.54
37.50
23.32
8.78
-5.16
-17.80
-29.16
-40.11
-51.99
-65.95
-82.24
-100.04
-117.80
-133.82
-146.80
-156.01
-161.28
-162.71
-160.41
-154.60
-145.64
-134.22
-121.26
-107.89
-95.26
-84.29
-75.50
-68.84
-63.59
-58.45
-51.92
-42.70
-30.13
-14.46
3.38
21.98
39.76
55.13
66.56
72.63
72.19
64.75
50.74
31.77
10.60
-9.23
-24.01
-30.61
-27.29
-14.22
6.38
30.68
54.08
72.20
81.79
81.11
69.85
48.74
19.33
-16.00
-53.76
-89.42
-117.92
-134.96
-138.37
-128.98
-110.26
-87.16
-64.27
-44.39
-28.06
-14.11
-0.77
13.28
28.24
43.50
58.18
71.78
84.46
96.77
109.13
121.19
131.79
139.34
142.79
142.41
140.05
138.42
139.78
144.71
151.55
157.05
157.77
151.55
138.34
120.02
99.56
79.88
63.05
50.02
40.80
34.67
30.47
26.66
21.49
13.28
0.85
-16.12
-37.00
-60.21
-83.51
-104.42
-120.53
-130.04
-132.09
-127.09
-116.84
-104.27
-92.76
-85.20
-83.06
-85.92
-91.66
-97.47
-101.05
-101.52
-99.58
-96.89
-95.06
-94.81
-95.87
-97.33
-98.44
-98.84
-98.64
-98.19
-98.01
-98.91
-102.06
-108.66
-119.09
-131.95
-143.59
-148.85
-142.75
-122.68
-89.73
-48.60
-5.90
32.21
61.96
82.59
95.42
102.34
104.54
102.30
95.74
85.74
74.20
63.38
54.75
48.36
43.06
37.51
31.10
24.35
18.50
14.61
13.00
13.19
14.12
14.63
13.70
10.61
5.20
-2.01
-9.91
-17.07
-22.24
-24.74
-24.65
-22.55
-19.18
-15.26
-11.56
-8.93
-8.09
-9.32
-12.00
-14.50
-14.81
-11.50
-4.46
4.43
11.65
13.17
6.02
-10.14
-32.25
-54.49
-70.38
-75.18
-67.73
-50.59
-28.54
-6.46
12.32
26.63
36.77
43.74
48.66
52.77
57.51
64.21
73.20
83.14
91.15
94.15
90.88
82.96
74.33
69.28
69.93
74.97
80.34
81.43
75.30
61.98
44.01
24.87
7.32
-7.36
-19.38
-29.61
-39.08
-48.89
-60.15
-73.61
-89.13
-105.16
-118.98
-127.71
-129.40
-123.67
-111.48
-94.36
-73.78
-51.10
-27.93
-6.42
11.27
24.13
33.19
41.35
51.91
66.70
85.28
105.75
126.48
147.42
169.55
192.84
214.16
227.24
224.86
202.64
161.98
110.11
57.43
13.52
-16.32
-32.12
-38.18
-40.68
-45.40
-56.17
-74.33
-98.90
-127.36
-156.61
-183.84
-206.99
-224.79
-236.61
-242.15
-241.34
-234.31
-221.46
-203.74
-182.42
-159.15
-135.68
-113.58
-93.91
-77.11
-62.98
-50.85
-40.03
-29.87
-19.75
-8.86
3.88
19.38
37.98
58.96
80.55
100.35
116.05
125.94
129.27
126.35
118.49
107.75
96.42
86.61
79.65
75.94
75.08
76.27
78.86
82.53
87.25
92.99
99.31
105.38
110.20
112.98
113.40
111.67
108.29
103.72
98.07
91.13
82.55
72.12
59.95
46.44
32.17
17.73
3.84
-8.76
-19.21
-26.81
-31.34
-33.22
-33.47
-33.26
-33.38
-33.93
-34.27
-33.54
-31.09
-26.97
-21.90
-16.85
-12.41
-8.46
-4.02
2.28
11.52
23.89
38.37
53.03
65.64
74.53
79.04
79.62
77.35
73.39
68.54
63.24
57.85
52.82
48.73
45.89
44.19
43.04
42.01
41.13
40.91
41.82
43.59
45.00
44.34
40.06
31.71
20.26
7.78
-3.28
-10.78
-13.31
-10.37
-2.26
9.65
22.94
34.46
41.16
41.33
35.39
25.78
15.99
9.06
6.41
7.44
9.73
10.05
5.26
-7.04
-28.01
-57.17
-92.06
-128.25
-160.10
-182.46
-192.69
-191.79
-184.24
-176.35
-173.88
-180.23
-195.83
-218.85
-246.77
-277.95
-312.20
-350.59
-394.18
-442.25
-491.23
-534.71
-565.01
-575.95
-565.21
-535.41
-493.04
-445.79
-399.64
-357.38
-318.85
-282.72
-248.30
-216.26
-187.99
-164.31
-144.57
-126.68
-108.33
-88.12
-66.31
-44.70
-25.71
-11.26
-1.90
3.39
6.71
10.23
15.32
22.10
29.51
35.92
40.00
41.42
41.01
40.49
41.80
46.31
54.31
64.97
76.74
88.06
98.06
106.92
115.78
126.21
139.45
155.83
174.50
193.81
211.92
227.59
240.71
252.31
264.39
279.39
299.55
326.12
358.46
393.58
426.23
450.06
459.53
451.98
428.85
395.39
358.67
324.94
297.25
274.76
253.68
229.30
198.37
160.41
117.80
74.88
36.55
6.76
-12.40
-20.98
-20.87
-15.02
-6.73
1.17
6.77
9.15
8.19
4.43
-1.08
-6.97
-11.82
-14.44
-14.38
-12.01
-8.51
-5.40
-3.75
-3.71
-4.47
-4.78
-3.82
-1.80
0.08
0.22
-2.43
-7.78
-14.72
-21.66
-27.17
-30.37
-30.89
-28.60
-23.69
-16.86
-9.71
-4.57
-3.73
-8.30
-17.43
-28.50
-38.03
-43.29
-43.13
-38.24
-30.34
-21.10
-11.29
-0.90
10.23
21.70
32.35
40.83
46.45
49.72
52.11
55.15
59.44
64.36
68.59
71.13
72.05
72.52
74.10
77.95
84.13
91.86
100.04
107.73
114.25
118.97
121.17
120.21
115.96
109.17
101.45
94.87
91.19
91.17
94.41
99.41
104.20
106.90
106.21
101.70
93.75
83.09
70.49
56.58
41.73
26.19
10.33
-5.24
-19.67
-32.03
-41.78
-49.06
-54.82
-60.62
-68.01
-77.79
-89.62
-102.07
-113.16
-121.21
-125.39
-125.83
-123.44
-119.55
-115.53
-112.77
-112.30
-114.55
-119.11
-124.61
-129.37
-132.15
-132.84
-132.69
-133.62
-137.29
-144.22
-153.74
-164.30
-174.01
-180.96
-183.35
-179.54
-168.43
-149.79
-124.55
-94.65
-62.51
-30.43
-0.27
26.62
49.22
66.77
78.90
86.00
89.28
90.63
92.10
95.22
100.62
107.98
116.18
123.75
129.25
131.68
130.55
125.91
118.02
107.27
93.99
78.58
61.64
44.02
26.76
10.75
-3.44
-15.62
-25.76
-33.86
-39.90
-43.92
-46.17
-47.08
-46.97
-45.86
-43.53
-39.68
-34.44
-28.49
-22.90
-18.76
-16.74
-16.86
-18.53
-20.94
-23.45
-25.75
-27.57
-28.36
-27.24
-23.17
-15.60
-5.02
6.77
17.03
23.00
22.77
16.03
4.12
-10.53
-25.26
-38.08
-47.91
-54.56
-58.47
-60.33
-60.90
-60.88
-60.69
-60.49
-60.23
-59.69
-58.65
-57.01
-54.81
-52.22
-49.43
-46.58
-43.63
-40.45
-36.83
-32.69
-28.16
-23.58
-19.43
-16.17
-14.07
-13.05
-12.63
-12.09
-10.81
-8.51
-5.51
-2.53
-0.36
0.56
0.47
0.25
1.05
3.63
7.95
12.96
17.10
19.05
18.42
16.17
14.33
15.41
21.48
33.51
51.16
72.91
96.54
119.59
139.86
155.66
166.03
170.90
171.06
167.98
163.31
158.32
153.48
148.48
142.62
135.32
126.63
117.09
107.11
96.39
83.76
67.82
47.74
23.75
-2.99
-31.06
-59.44
-87.70
-115.35
-140.96
-161.77
-174.33
-176.11
-167.30
-151.22
-133.37
-119.07
-111.51
-110.95
-115.58
-123.08
-131.98
-141.96
-152.98
-164.09
-172.75
-175.24
-168.33
-150.98
-125.10
-95.18
-66.62
-43.74
-28.40
-19.82
-15.52
-13.00
-11.29
-11.38
-15.32
-24.38
-37.57
-51.46
-61.45
-63.88
-57.85
-45.52
-30.93
-18.04
-9.11
-4.19
-1.86
-0.31
1.69
4.39
7.47
10.49
13.36
16.42
20.27
25.40
31.99
39.68
47.48
53.98
57.66
57.35
52.56
43.82
32.60
20.86
10.41
2.32
-3.57
-8.43
-13.93
-21.28
-30.58
-40.58
-48.97
-53.41
-52.61
-47.03
-39.00
-31.75
-28.10
-29.32
-34.76
-42.56
-50.83
-58.81
-67.24
-77.67
-91.14
-107.11
-123.15
-135.76
-141.55
-138.57
-126.70
-107.39
-83.03
-56.02
-28.43
-1.79
22.70
44.05
61.46
74.63
84.04
90.97
97.13
103.93
111.93
120.55
128.39
133.65
134.64
129.99
118.70
100.05
73.82
40.58
1.93
-39.50
-80.50
-117.94
-149.40
-173.52
-189.84
-198.55
-200.04
-194.78
-183.18
-165.76
-143.24
-116.42
-86.07
-52.91
-17.72
18.17
52.65
82.99
106.49
121.46
127.91
127.57
123.15
117.23
111.42
106.14
101.07
95.74
89.92
83.60
76.69
68.72
58.99
46.93
32.72
17.57
3.62
-6.48
-10.37
-6.77
4.14
20.58
39.79
58.71
74.87
86.84
94.24
97.35
96.67
92.72
86.02
77.44
68.20
59.70
53.11
48.84
46.45
44.87
43.03
40.36
36.96
33.38
30.12
27.27
24.35
20.50
14.77
6.56
-4.11
-16.29
-28.20
-37.36
-41.28
-38.21
-27.78
-11.26
8.77
29.17
47.24
61.22
70.47
75.18
75.93
73.42
68.29
61.37
53.63
46.20
40.16
36.16
34.26
33.83
33.86
33.33
31.60
28.63
24.87
20.97
17.34
14.04
10.71
6.83
1.94
-4.16
-11.38
-19.27
-26.96
-33.11
-36.01
-33.97
-25.84
-11.61
7.36
28.64
49.39
67.24
80.79
89.74
94.55
95.92
94.39
90.44
84.59
77.62
70.55
64.40
59.89
57.16
55.81
55.10
54.28
52.81
50.49
47.35
43.58
39.35
34.81
30.16
25.61
21.35
17.53
14.09
10.77
7.24
3.17
-1.58
-6.84
-12.27
-17.51
-22.28
-26.56
-30.59
-34.77
-39.63
-45.64
-52.99
-61.31
-69.48
-75.66
-77.66
-73.65
-62.94
-46.39
-26.25
-5.46
13.27
28.17
38.63
44.93
47.71
47.64
45.25
41.14
36.10
31.13
27.28
25.21
25.06
26.33
28.12
29.48
29.71
28.66
26.64
24.26
21.98
19.97
17.88
15.16
11.29
6.11
-0.09
-6.67
-12.94
-18.41
-22.96
-26.82
-30.37
-34.09
-38.41
-43.67
-49.93
-56.89
-63.65
-68.76
-70.54
-67.54
-59.11
-45.70
-28.88
-11.00
5.41
18.32
26.60
30.30
30.59
29.35
28.77
30.90
37.39
49.28
66.93
89.64
115.42
141.05
162.62
176.62
181.11
176.29
164.24
147.95
130.08
112.17
94.60
77.08
59.40
41.73
24.55
8.37
-6.56
-20.27
-32.90
-44.56
-55.39
-65.63
-75.54
-85.36
-95.04
-104.15
-111.91
-117.50
-120.25
-119.80
-116.05
-109.11
-99.25
-87.04
-73.43
-59.81
-47.66
-38.07
-31.19
-25.97
-20.35
-12.04
0.64
17.92
38.35
59.07
76.85
89.19
95.26
96.16
94.36
92.70
93.23
96.57
101.76
106.65
108.49
104.65
93.30
74.02
48.27
19.29
-8.54
-30.79
-44.49
-49.11
-46.68
-40.96
-35.87
-34.07
-36.09
-40.58
-45.20
-47.75
-47.01
-43.00
-36.62
-29.12
-21.58
-14.83
-9.44
-5.89
-4.57
-5.65
-8.97
-13.99
-19.87
-25.62
-30.26
-33.08
-33.69
-32.25
-29.42
-26.20
-23.62
-22.37
-22.55
-23.75
-25.27
-26.65
-27.83
-29.24
-31.50
-35.05
-39.94
-45.86
-52.24
-58.41
-63.79
-67.85
-70.20
-70.58
-68.99
-65.69
-61.13
-55.88
-50.36
-44.84
-39.36
-33.78
-27.90
-21.69
-15.44
-9.93
-6.24
-5.29
-7.33
-11.46
-15.72
-17.73
-15.56
-8.60
2.41
15.75
29.64
43.05
55.86
68.54
81.48
94.65
107.43
119.04
128.85
136.53
141.95
144.90
144.99
141.78
135.20
125.72
114.37
102.35
90.57
79.28
68.11
56.27
43.04
28.06
11.47
-6.12
-23.84
-40.73
-56.01
-69.16
-80.01
-88.60
-95.05
-99.36
-101.42
-101.06
-98.28
-93.27
-86.39
-78.14
-69.11
-60.04
-51.82
-45.32
-41.17
-39.35
-39.08
-39.02
-37.80
-34.51
-29.03
-21.93
-14.19
-6.81
-0.56
4.13
7.08
8.28
7.90
6.20
3.57
0.50
-2.59
-5.30
-7.39
-8.82
-9.72
-10.32
-10.89
-11.58
-12.39
-13.13
-13.59
-13.66
-13.49
-13.42
-13.92
-15.34
-17.80
-21.13
-24.86
-28.36
-30.90
-31.81
-30.61
-27.11
-21.61
-14.75
-7.42
-0.52
5.37
9.96
13.25
15.26
15.95
15.23
13.20
10.31
7.46
5.67
5.67
7.58
10.75
14.08
16.49
17.39
16.98
16.11
15.98
17.82
22.76
31.49
44.00
58.97
73.65
84.37
87.74
82.05
68.11
48.98
28.69
10.58
-3.74
-14.45
-22.61
-29.25
-34.90
-39.76
-44.25
-49.03
-54.59
-60.57
-65.56
-67.63
-65.37
-58.54
-48.18
-36.05
-23.70
-11.90
-0.79
9.52
18.25
23.84
24.50
19.27
8.57
-5.76
-21.21
-35.57
-47.55
-56.79
-63.39
-67.32
-68.20
-65.56
-59.26
-49.89
-38.77
-27.50
-17.35
-8.97
-2.48
2.30
5.54
7.30
7.62
6.66
4.86
2.86
1.34
0.79
1.43
3.10
5.38
7.76
9.67
10.62
10.31
8.70
5.97
2.56
-1.02
-4.35
-7.24
-9.84
-12.60
-16.08
-20.76
-26.69
-33.30
-39.46
-43.70
-44.62
-41.43
-34.19
-23.83
-11.82
0.23
10.97
19.53
25.46
28.71
29.41
27.93
24.84
20.89
16.95
13.81
12.03
11.79
12.90
14.82
16.84
18.24
18.43
17.19
14.63
11.19
7.44
3.89
0.78
-1.98
-4.74
-7.93
-11.91
-16.84
-22.60
-28.74
-34.42
-38.50
-39.74
-37.19
-30.59
-20.51
-8.33
4.14
15.12
23.39
28.45
30.51
30.21
28.32
25.55
22.52
19.69
17.45
16.02
15.43
15.52
15.97
16.43
16.63
16.38
15.63
14.37
12.61
10.35
7.59
4.47
1.18
-2.00
-4.89
-7.41
-9.60
-11.72
-14.12
-17.26
-21.51
-26.93
-32.97
-38.40
-41.55
-40.80
-35.37
-25.67
-13.37
-0.84
9.74
17.11
21.20
22.84
23.18
23.03
22.56
21.47
19.35
16.05
11.96
8.00
5.38
5.28
8.52
15.34
25.40
37.83
51.55
65.35
77.93
87.99
94.31
95.99
92.87
85.57
75.32
63.52
51.21
39.01
27.38
16.94
8.58
3.22
1.22
2.07
4.58
7.43
9.93
12.45
16.20
22.56
32.37
45.59
61.29
78.12
94.70
109.94
123.18
134.08
142.54
148.50
151.77
152.13
149.40
143.62
135.22
125.05
114.13
103.35
93.06
82.87
71.81
58.98
43.98
27.45
10.94
-3.66
-14.73
-21.44
-23.91
-22.89
-19.41
-14.46
-8.95
-3.81
-0.11
1.06
-1.15
-6.97
-15.77
-26.19
-36.44
-44.76
-49.87
-51.23
-48.92
-43.58
-36.08
-27.30
-18.10
-9.04
-0.38
8.00
16.36
24.78
32.71
38.91
41.76
40.02
33.59
23.73
12.54
1.86
-7.62
-16.67
-26.99
-40.18
-56.86
-76.30
-96.78
-116.23
-132.91
-145.82
-154.85
-160.68
-164.68
-168.54
-173.68
-180.64
-188.63
-195.55
-198.69
-195.61
-184.96
-166.70
-141.88
-111.98
-78.48
-42.59
-5.43
31.72
67.14
98.87
125.01
144.16
155.82
160.46
159.39
154.52
147.91
141.25
135.24
129.25
121.29
108.51
88.14
58.53
19.97
-25.21
-73.02
-118.78
-158.03
-187.47
-205.29
-211.29
-206.57
-193.05
-173.04
-148.92
-123.00
-97.52
-74.58
-55.92
-42.58
-34.56
-30.85
-29.66
-29.11
-27.80
-25.13
-21.41
-17.41
-13.91
-11.44
-10.03
-9.26
-8.46
-7.05
-4.77
-1.87
0.99
3.08
3.82
3.05
1.01
-1.73
-4.41
-6.30
-6.72
-5.27
-2.03
2.40
6.90
10.24
11.53
10.64
8.11
4.66
0.68
-4.32
-11.42
-21.60
-35.18
-51.54
-69.49
-87.91
-105.99
-123.01
-137.92
-149.16
-155.28
-155.90
-152.39
-147.34
-143.30
-141.25
-140.03
-137.25
-131.12
-121.98
-112.27
-104.90
-101.18
-99.95
-98.50
-94.42
-87.30
-78.65
-70.43
-63.30
-55.78
-45.16
-29.42
-8.66
14.73
37.31
56.32
70.72
81.10
88.93
95.65
102.24
109.10
116.18
122.61
126.54
125.16
115.36
95.16
65.29
29.92
-4.07
-29.50
-41.67
-40.09
-28.63
-13.51
-0.54
7.14
9.91
10.52
12.02
15.88
21.48
26.97
30.63
31.97
31.72
31.17
31.20
31.74
31.93
30.75
27.92
24.18
21.01
19.72
20.65
22.84
24.57
24.07
20.45
13.97
5.90
-2.14
-8.87
-13.72
-17.03
-19.63
-22.30
-25.30
-28.11
-29.75
-29.16
-25.77
-19.74
-11.88
-3.33
4.85
11.93
17.57
21.69
24.31
25.43
25.02
23.28
20.61
17.69
15.27
13.89
13.74
14.60
15.90
17.02
17.50
17.20
16.27
14.99
13.62
12.23
10.76
9.04
6.91
4.25
0.95
-3.04
-7.67
-12.76
-17.99
-22.83
-26.58
-28.41
-27.45
-23.17
-15.59
-5.47
5.89
17.02
26.74
34.49
40.27
44.47
47.47
49.54
50.80
51.36
51.33
50.76
49.51
47.35
44.20
40.41
36.71
34.11
33.47
35.32
39.71
46.11
53.24
59.07
60.87
55.95
42.58
20.83
-7.13
-37.74
-67.04
-91.90
-110.44
-121.86
-125.86
-122.38
-111.72
-94.94
-74.17
-52.31
-32.25
-15.98
-4.08
4.13
9.99
14.71
18.92
22.59
25.39
27.06
27.70
27.77
27.88
28.47
29.60
31.01
32.32
33.20
33.57
33.61
33.62
33.87
34.48
35.34
36.12
36.45
35.96
34.49
32.06
29.01
25.77
22.76
20.15
17.80
15.35
12.47
9.05
5.27
1.52
-1.88
-4.86
-7.58
-10.33
-13.26
-16.45
-19.90
-23.67
-27.83
-32.33
-36.74
-40.15
-41.43
-39.55
-34.20
-25.84
-15.66
-5.10
4.58
12.66
18.96
23.62
26.87
28.80
29.47
29.05
27.91
26.68
26.06
26.51
28.00
30.05
31.94
33.07
33.21
32.57
31.63
30.82
30.33
30.12
29.89
29.33
28.22
26.46
24.09
21.32
18.46
15.83
13.70
12.15
11.04
10.08
8.94
7.37
5.34
2.96
0.44
-2.00
-4.29
-6.43
-8.47
-10.51
-12.61
-14.96
-17.84
-21.54
-26.14
-31.25
-35.95
-38.96
-39.15
-35.98
-29.80
-21.69
-13.02
-4.95
1.88
7.34
11.58
14.83
17.17
18.69
19.42
19.52
19.27
18.98
18.89
19.21
19.97
21.07
22.30
23.37
24.04
24.23
24.09
23.81
23.53
23.19
22.60
21.56
19.94
17.85
15.51
13.19
11.00
8.99
7.12
5.34
3.63
1.85
-0.18
-2.62
-5.48
-8.53
-11.36
-13.58
-15.12
-16.23
-17.49
-19.49
-22.54
-26.50
-30.76
-34.48
-36.79
-37.01
-34.79
-30.18
-23.67
-16.09
-8.40
-1.50
4.00
7.89
10.34
11.63
12.16
12.22
12.04
11.82
11.80
12.09
12.74
13.58
14.33
14.75
14.78
14.60
14.50
14.73
15.29
15.86
16.02
15.42
14.03
12.05
9.85
7.66
5.58
3.52
1.41
-0.75
-2.78
-4.52
-5.96
-7.26
-8.74
-10.68
-13.19
-16.22
-19.62
-23.24
-26.92
-30.48
-33.51
-35.46
-35.72
-33.87
-29.85
-24.06
-17.30
-10.51
-4.43
0.45
3.98
6.22
7.28
7.27
6.37
4.89
3.26
1.96
1.42
1.87
3.32
5.46
7.66
9.04
8.80
6.67
3.38
0.84
1.69
8.07
20.37
36.58
52.81
64.76
69.54
66.81
58.76
49.01
41.00
36.83
36.62
38.68
40.01
37.01
26.15
4.79
-27.80
-69.51
-115.00
-156.35
-184.83
-193.34
-178.79
-143.22
-93.42
-38.85
11.24
50.34
75.81
88.39
90.62
85.30
74.57
60.13
43.80
27.99
15.33
7.93
6.44
9.84
15.84
21.78
25.65
26.53
24.57
20.41
14.70
7.65
-0.84
-10.84
-22.06
-33.55
-44.02
-52.17
-57.32
-59.74
-60.50
-61.13
-62.86
-66.30
-71.16
-76.55
-81.25
-84.20
-84.59
-82.01
-76.43
-68.19
-57.99
-46.70
-35.21
-24.13
-13.73
-4.04
4.92
12.80
19.01
22.98
24.50
23.90
22.00
19.74
17.85
16.75
16.66
17.86
20.82
25.91
33.00
41.21
49.06
54.93
57.64
56.75
52.50
45.49
36.37
25.82
14.64
3.84
-5.48
-12.44
-16.83
-19.18
-20.70
-22.89
-26.82
-32.79
-39.96
-46.57
-50.43
-49.67
-43.39
-32.01
-17.13
-0.88
14.63
27.94
38.43
46.00
50.77
52.79
52.22
49.56
45.86
42.50
40.76
41.32
43.98
47.78
51.48
54.10
55.33
55.51
55.19
54.58
53.26
50.11
43.80
33.24
18.12
-0.91
-22.31
-43.97
-63.80
-80.08
-91.95
-99.31
-102.73
-103.03
-100.91
-96.81
-90.95
-83.70
-75.61
-67.41
-59.52
-51.80
-43.57
-34.11
-23.29
-11.83
-1.07
7.71
14.08
18.75
23.17
28.67
35.65
43.19
49.48
52.63
51.49
46.02
37.18
26.48
15.36
4.85
-4.48
-12.42
-18.82
-23.45
-25.93
-25.84
-22.88
-16.99
-8.37
2.58
15.37
29.39
43.96
58.15
70.83
80.82
87.18
89.55
88.02
82.92
74.53
63.12
49.38
34.70
21.09
10.34
2.98
-2.25
-7.83
-16.19
-28.16
-42.71
-57.56
-70.75
-81.62
-90.81
-99.29
-107.36
-114.30
-119.07
-121.27
-121.66
-121.73
-122.68
-124.49
-125.95
-125.24
-120.96
-112.77
-101.30
-87.69
-73.14
-58.57
-44.62
-31.59
-19.41
-7.68
4.15
16.41
28.93
40.90
51.15
58.61
62.73
63.75
62.79
61.83
63.34
69.54
81.60
98.77
118.12
135.21
145.53
146.18
137.04
120.70
101.14
81.95
64.95
49.68
34.12
15.99
-5.86
-30.56
-55.29
-76.19
-89.64
-93.42
-87.27
-72.62
-51.79
-27.27
-1.25
24.52
48.50
69.25
85.59
96.77
102.86
104.63
103.35
100.25
96.13
91.25
85.58
79.07
71.91
64.70
58.15
52.85
49.01
46.37
44.31
42.19
39.57
36.44
33.11
30.05
27.63
26.04
25.42
25.97
28.09
32.23
38.71
47.40
57.55
67.81
76.63
82.57
84.69
82.77
77.13
68.45
57.63
45.57
33.16
20.99
9.13
-3.02
-16.52
-32.18
-49.78
-67.59
-82.71
-92.11
-94.00
-88.63
-78.26
-66.10
-55.07
-46.81
-41.56
-38.71
-37.51
-37.53
-38.60
-40.49
-42.71
-44.57
-45.35
-44.71
-42.87
-40.51
-38.49
-37.49
-37.71
-38.78
-40.07
-40.90
-40.97
-40.41
-39.69
-39.34
-39.72
-40.84
-42.35
-43.64
-43.96
-42.65
-39.28
-33.85
-26.86
-19.20
-11.82
-5.44
-0.30
3.86
7.44
10.76
13.76
16.05
17.27
17.27
16.35
15.18
14.42
14.54
15.53
17.03
18.41
19.19
19.10
18.19
16.69
14.93
13.16
11.53
10.02
8.50
6.83
4.90
2.71
0.42
-1.76
-3.61
-5.02
-6.02
-6.81
-7.74
-9.24
-11.73
-15.38
-20.07
-25.15
-29.64
-32.42
-32.63
-29.97
-24.83
-18.07
-10.75
-3.72
2.49
7.67
11.76
14.70
16.45
16.97
16.46
15.33
14.12
13.29
13.05
13.28
13.69
13.95
13.95
13.71
13.36
12.92
12.28
11.27
9.87
8.30
6.89
5.99
5.66
5.63
5.43
4.59
2.86
0.32
-2.69
-5.74
-8.45
-10.59
-12.15
-13.21
-14.02
-14.88
-16.17
-18.10
-20.73
-23.70
-26.30
-27.66
-26.94
-23.75
-18.28
-11.31
-3.94
2.74
8.05
11.74
13.98
15.14
15.49
15.18
14.35
13.13
11.86
10.92
10.65
11.14
12.23
13.54
14.69
15.46
15.76
15.71
15.40
14.92
14.26
13.44
12.45
11.36
10.25
9.17
8.14
7.16
6.20
5.20
4.06
2.65
0.90
-1.15
-3.40
-5.65
-7.74
-9.62
-11.32
-12.95
-14.60
-16.38
-18.37
-20.65
-23.23
-25.98
-28.56
-30.34
-30.67
-28.99
-25.16
-19.51
-12.78
-5.88
0.42
5.60
9.51
12.19
13.76
14.33
13.99
12.98
11.65
10.47
9.75
9.66
10.04
10.61
11.15
11.60
12.12
12.93
14.17
15.68
17.09
17.94
17.83
16.68
14.70
12.30
9.94
7.94
6.45
5.42
4.68
3.99
3.15
1.96
0.29
-1.93
-4.62
-7.57
-10.44
-12.96
-14.99
-16.60
-18.13
-19.89
-22.10
-24.62
-27.01
-28.61
-28.71
-26.86
-22.95
-17.32
-10.62
-3.70
2.59
7.62
11.07
12.96
13.54
13.20
12.30
11.17
10.03
9.06
8.41
8.13
8.23
8.59
9.08
9.56
10.02
10.45
10.85
11.17
11.26
11.00
10.34
9.38
8.24
7.09
5.94
4.71
3.29
1.59
-0.33
-2.35
-4.37
-6.34
-8.31
-10.35
-12.53
-14.86
-17.34
-19.91
-22.54
-25.07
-27.16
-28.29
-27.88
-25.53
-21.20
-15.29
-8.59
-1.94
3.91
8.54
11.86
14.00
15.18
15.59
15.35
14.55
13.32
11.81
10.21
8.77
7.69
7.15
7.21
7.80
8.71
9.67
10.38
10.65
10.42
9.72
8.69
7.44
6.04
4.55
3.00
1.36
-0.35
-2.15
-4.04
-6.01
-7.97
-9.84
-11.57
-13.26
-15.13
-17.37
-20.05
-22.94
-25.51
-27.09
-27.07
-25.12
-21.34
-16.19
-10.38
-4.66
0.32
4.18
6.79
8.20
8.62
8.32
7.58
6.76
6.15
6.01
6.51
7.54
8.82
9.97
10.69
10.88
10.69
10.36
10.09
9.82
9.29
8.21
6.42
4.06
1.47
-0.99
-3.11
-4.97
-6.78
-8.75
-10.99
-13.38
-15.80
-18.15
-20.43
-22.69
-24.87
-26.66
-27.51
-26.78
-23.98
-19.14
-12.79
-5.92
0.42
5.42
8.72
10.36
10.63
9.88
8.38
6.37
4.12
1.98
0.39
-0.38
-0.23
0.67
2.02
3.45
4.66
5.50
5.88
5.79
5.28
4.41
3.27
1.96
0.59
-0.77
-2.09
-3.47
-5.00
-6.89
-9.24
-12.17
-15.65
-19.50
-23.27
-26.34
-28.03
-27.77
-25.34
-20.95
-15.18
-8.85
-2.74
2.56
6.67
9.51
11.16
11.84
11.83
11.47
10.96
10.41
9.76
8.95
7.95
6.86
5.86
5.18
4.87
4.83
4.79
4.44
3.60
2.22
0.46
-1.46
-3.33
-5.08
-6.76
-8.49
-10.43
-12.74
-15.52
-18.76
-22.20
-25.35
-27.54
-28.04
-26.35
-22.45
-16.80
-10.12
-3.27
3.03
8.28
12.18
14.62
15.65
15.43
14.30
12.61
10.73
8.95
7.45
6.36
5.72
5.51
5.61
5.85
6.06
6.12
6.00
5.74
5.31
4.70
3.82
2.63
1.21
-0.31
-1.77
-3.14
-4.58
-6.43
-9.04
-12.60
-16.90
-21.30
-24.76
-26.23
-24.98
-20.89
-14.54
-6.94
0.72
7.45
12.67
16.24
18.29
19.11
18.92
17.87
16.14
13.96
11.67
9.70
8.37
7.83
7.98
8.49
9.00
9.24
9.07
8.52
7.63
6.46
4.99
3.22
1.25
-0.81
-2.85
-4.88
-7.13
-9.86
-13.23
-17.10
-20.99
-24.08
-25.57
-24.80
-21.60
-16.34
-9.77
-2.87
3.45
8.55
12.15
14.28
15.19
15.21
14.61
13.56
12.15
10.49
8.77
7.25
6.21
5.85
6.23
7.17
8.29
9.09
9.17
8.32
6.66
4.52
2.36
0.52
-0.93
-2.23
-3.74
-5.83
-8.68
-12.25
-16.20
-20.01
-23.01
-24.52
-24.01
-21.31
-16.69
-10.77
-4.41
1.58
6.64
10.49
13.08
14.43
14.59
13.68
11.91
9.65
7.38
5.60
4.56
4.34
4.73
5.42
6.11
6.57
6.75
6.63
6.28
5.71
4.92
3.90
2.64
1.19
-0.44
-2.35
-4.69
-7.62
-11.17
-15.17
-19.23
-22.80
-25.30
-26.19
-25.17
-22.15
-17.36
-11.26
-4.52
2.03
7.67
11.88
14.46
15.56
15.51
14.74
13.63
12.53
11.64
11.10
10.97
11.22
11.73
12.31
12.77
12.98
12.94
12.69
12.28
11.64
10.64
9.08
6.85
3.99
0.76
-2.48
-5.35
-7.66
-9.46
-11.01
-12.72
-14.94
-17.82
-21.22
-24.70
-27.59
-29.12
-28.64
-25.81
-20.71
-13.93
-6.43
0.77
6.80
11.22
14.11
15.87
17.01
17.88
18.61
19.10
19.29
19.26
19.21
19.34
19.72
20.20
20.50
20.38
19.80
18.96
18.14
17.53
17.14
16.72
15.97
14.70
12.92
10.84
8.77
6.94
5.49
4.39
3.51
2.66
1.67
0.35
-1.42
-3.64
-6.20
-8.82
-11.21
-13.25
-15.04
-16.96
-19.38
-22.47
-25.90
-28.94
-30.60
-30.12
-27.29
-22.50
-16.61
-10.57
-5.14
-0.64
2.96
5.84
8.15
9.91
11.07
11.60
11.61
11.38
11.28
11.63
12.55
13.96
15.59
17.12
18.28
18.99
19.29
19.27
18.98
18.42
17.59
16.50
15.26
13.98
12.75
11.58
10.34
8.96
7.38
5.64
3.79
1.92
0.05
-1.82
-3.68
-5.48
-7.13
-8.53
-9.64
-10.56
-11.49
-12.76
-14.71
-17.52
-21.01
-24.64
-27.57
-28.90
-28.01
-24.78
-19.62
-13.38
-6.99
-1.23
3.44
6.87
9.22
10.74
11.71
12.37
12.86
13.24
13.50
13.66
13.80
14.01
14.39
14.88
15.35
15.65
15.70
15.57
15.39
15.26
15.06
14.54
13.43
11.67
9.52
7.40
5.71
4.57
3.82
3.11
2.14
0.84
-0.71
-2.29
-3.73
-5.00
-6.11
-7.09
-7.98
-8.82
-9.71
-10.78
-12.18
-14.01
-16.23
-18.75
-21.36
-23.74
-25.45
-26.00
-24.90
-21.99
-17.49
-12.04
-6.54
-1.81
1.65
3.78
4.90
5.46
5.86
6.29
6.79
7.29
7.77
8.30
8.99
9.95
11.19
12.55
13.75
14.51
14.67
14.27
13.54
12.72
12.01
11.41
10.83
10.16
9.38
8.50
7.63
6.74
5.78
4.64
3.30
1.86
0.48
-0.72
-1.72
-2.60
-3.53
-4.61
-5.88
-7.29
-8.81
-10.45
-12.30
-14.50
-17.08
-19.98
-22.93
-25.53
-27.35
-28.00
-27.20
-24.87
-21.12
-16.28
-10.81
-5.27
-0.20
4.02
7.22
9.42
10.80
11.52
11.72
11.54
11.11
10.61
10.22
10.04
10.03
10.06
9.96
9.72
9.48
9.47
9.87
10.65
11.52
12.06
11.91
10.88
9.00
6.57
3.96
1.58
-0.28
-1.54
-2.32
-2.86
-3.47
-4.36
-5.58
-7.01
-8.51
-9.99
-11.44
-12.90
-14.44
-16.10
-17.95
-20.05
-22.37
-24.70
-26.55
-27.30
-26.35
-23.49
-19.00
-13.59
-8.08
-3.16
0.90
4.14
6.72
8.76
10.19
10.89
10.80
10.05
8.94
7.92
7.37
7.49
8.21
9.31
10.45
11.30
11.69
11.58
11.04
10.22
9.25
8.22
7.20
6.26
5.40
4.57
3.61
2.37
0.71
-1.36
-3.70
-6.06
-8.19
-9.99
-11.50
-12.92
-14.51
-16.47
-18.87
-21.55
-24.18
-26.27
-27.34
-27.00
-25.03
-21.48
-16.62
-11.00
-5.29
-0.13
4.00
6.91
8.74
9.82
10.44
10.84
11.08
11.15
11.06
10.86
10.63
10.41
10.20
9.91
9.50
8.91
8.15
7.28
6.42
5.69
5.15
4.83
4.58
4.20
3.50
2.33
0.74
-1.10
-2.98
-4.66
-6.04
-7.10
-7.94
-8.75
-9.73
-11.10
-13.02
-15.53
-18.54
-21.72
-24.60
-26.58
-27.10
-25.75
-22.45
-17.55
-11.68
-5.64
-0.13
4.34
7.55
9.56
10.52
10.69
10.26
9.41
8.38
7.38
6.62
6.25
6.34
6.81
7.48
8.12
8.55
8.68
8.49
8.03
7.35
6.50
5.47
4.24
2.80
1.22
-0.42
-1.99
-3.40
-4.64
-5.79
-7.02
-8.50
-10.38
-12.75
-15.63
-18.92
-22.31
-25.26
-27.10
-27.20
-25.25
-21.37
-16.13
-10.29
-4.61
0.47
4.74
8.14
10.62
12.01
12.22
11.33
9.66
7.74
6.06
4.95
4.50
4.58
4.97
5.45
5.85
6.04
5.90
5.27
4.09
2.48
0.64
-1.12
-2.56
-3.64
-4.47
-5.27
-6.32
-7.82
-9.88
-12.47
-15.45
-18.51
-21.16
-22.76
-22.67
-20.50
-16.30
-10.60
-4.30
1.69
6.71
10.50
13.09
14.72
15.51
15.46
14.46
12.53
9.91
7.12
4.78
3.41
3.18
3.90
5.05
6.01
6.34
5.89
4.83
3.50
2.28
1.32
0.56
-0.28
-1.53
-3.44
-6.15
-9.64
-13.77
-18.27
-22.68
-26.32
-28.40
-28.23
-25.47
-20.40
-13.81
-6.81
-0.41
4.70
8.33
10.56
11.66
11.84
11.20
9.84
7.91
5.73
3.70
2.20
1.46
1.49
2.06
2.80
3.37
3.51
3.12
2.23
0.95
-0.57
-2.19
-3.79
-5.33
-6.89
-8.80
-11.46
-15.20
-20.01
-25.34
-30.18
-33.30
-33.76
-31.23
-26.15
-19.50
-12.43
-5.84
-0.15
4.58
8.42
11.39
13.34
14.08
13.59
12.06
9.98
7.90
6.34
5.56
5.61
6.26
7.17
7.95
8.26
7.91
6.85
5.23
3.29
1.31
-0.59
-2.48
-4.57
-7.21
-10.68
-15.09
-20.26
-25.66
-30.46
-33.75
-34.68
-32.80
-28.13
-21.26
-13.09
-4.62
3.32
10.21
15.80
19.99
22.75
24.06
24.05
23.03
21.55
20.22
19.57
19.83
20.95
22.62
24.48
26.17
27.44
28.05
27.84
26.84
25.19
23.25
21.30
19.44
17.48
15.04
11.83
7.85
3.48
-0.76
-4.42
-7.40
-9.91
-12.35
-15.04
-18.15
-21.84
-26.17
-31.13
-36.40
-41.20
-44.37
-44.70
-41.43
-34.58
-25.08
-14.38
-3.99
5.05
12.34
17.99
22.27
25.38
27.36
28.28
28.38
28.06
27.74
27.72
28.03
28.48
28.80
28.80
28.55
28.27
28.22
28.52
29.10
29.71
30.11
30.07
29.47
28.26
26.47
24.16
21.47
18.61
15.79
13.20
10.96
9.07
7.40
5.77
3.95
1.84
-0.63
-3.41
-6.39
-9.43
-12.37
-15.12
-17.68
-20.16
-22.78
-25.79
-29.40
-33.65
-38.29
-42.73
-46.06
-47.25
-45.41
-40.15
-31.79
-21.35
-10.24
0.06
8.48
14.47
18.13
19.90
20.41
20.16
19.51
18.65
17.79
17.13
16.92
17.32
18.32
19.67
21.01
22.04
22.62
22.86
22.92
22.93
22.89
22.71
22.30
21.65
20.79
19.76
18.54
16.99
15.02
12.70
10.26
8.04
6.33
5.21
4.54
3.95
3.08
1.65
-0.37
-2.87
-5.58
-8.25
-10.70
-12.88
-14.87
-16.91
-19.31
-22.41
-26.40
-31.13
-35.97
-39.89
-41.72
-40.52
-35.99
-28.60
-19.42
-9.82
-0.98
6.35
11.87
15.64
17.86
18.73
18.46
17.37
15.90
14.55
13.83
13.99
14.98
16.52
18.22
19.72
20.87
21.68
22.27
22.67
22.80
22.46
21.54
20.09
18.35
16.65
15.15
13.81
12.42
10.77
8.84
6.79
4.89
3.36
2.16
1.05
-0.26
-2.04
-4.31
-6.97
-9.76
-12.47
-14.92
-17.06
-18.99
-20.97
-23.25
-26.11
-29.60
-33.49
-37.28
-40.17
-41.31
-40.02
-35.96
-29.33
-20.85
-11.55
-2.60
5.10
11.04
15.20
17.82
19.22
19.60
19.05
17.71
15.83
13.89
12.40
11.79
12.13
13.17
14.45
15.60
16.44
17.02
17.50
17.95
18.28
18.25
17.65
16.36
14.42
12.04
9.51
7.12
5.11
3.64
2.67
1.99
1.24
0.01
-1.96
-4.67
-7.76
-10.80
-13.35
-15.29
-16.79
-18.31
-20.30
-23.01
-26.44
-30.20
-33.76
-36.38
-37.37
-36.20
-32.70
-27.05
-19.82
-11.85
-3.99
3.02
8.73
12.95
15.73
17.18
17.51
16.96
15.86
14.60
13.57
13.07
13.20
13.82
14.62
15.28
15.62
15.65
15.60
15.63
15.81
15.92
15.64
14.69
12.97
10.67
8.12
5.69
3.58
1.82
0.25
-1.39
-3.32
-5.61
-8.15
-10.76
-13.13
-15.09
-16.58
-17.76
-18.91
-20.35
-22.33
-24.94
-28.00
-31.08
-33.51
-34.50
-33.44
-30.01
-24.45
-17.47
-10.05
-3.16
2.52
6.70
9.48
11.17
12.15
12.75
13.21
13.66
14.14
14.62
15.05
15.45
15.90
16.50
17.33
18.33
19.27
19.89
20.00
19.61
18.89
18.07
17.27
16.40
15.28
13.72
11.65
9.19
6.51
3.80
1.05
-1.80
-4.78
-7.83
-10.76
-13.33
-15.49
-17.40
-19.46
-22.10
-25.44
-29.08
-32.15
-33.60
-32.62
-28.98
-23.16
-16.05
-8.73
-2.02
3.64
8.10
11.44
13.70
14.91
15.01
14.03
12.14
9.70
7.26
5.43
4.58
4.75
5.62
6.71
7.60
8.16
8.50
8.73
8.79
8.44
7.40
5.52
2.98
0.17
-2.49
-4.72
-6.40
-7.58
-8.34
-8.81
-9.17
-9.78
-11.09
-13.53
-17.19
-21.71
-26.24
-29.69
-31.10
-29.94
-26.32
-20.85
-14.38
-7.70
-1.34
4.32
9.03
12.46
14.32
14.53
13.22
10.82
7.88
4.94
2.39
0.52
-0.52
-0.65
0.08
1.46
3.09
4.57
5.57
5.94
5.67
4.82
3.41
1.50
-0.81
-3.37
-5.99
-8.67
-11.54
-14.84
-18.68
-22.86
-26.71
-29.34
-29.85
-27.76
-23.16
-16.69
-9.31
-1.98
4.56
9.93
13.96
16.68
18.12
18.37
17.59
16.04
14.08
12.02
10.11
8.44
7.04
5.92
5.09
4.54
4.17
3.70
2.82
1.24
-1.10
-4.00
-7.05
-9.84
-12.09
-13.83
-15.37
-17.17
-19.66
-22.97
-26.77
-30.30
-32.50
-32.43
-29.60
-24.13
-16.81
-8.71
-0.91
5.89
11.36
15.45
18.22
19.63
19.70
18.49
16.29
13.58
10.96
8.94
7.83
7.60
7.94
8.32
8.28
7.52
6.07
4.22
2.35
0.73
-0.61
-1.93
-3.59
-5.93
-9.12
-13.19
-18.01
-23.30
-28.64
-33.27
-36.27
-36.74
-34.10
-28.36
-20.22
-10.83
-1.53
6.63
13.02
17.48
20.14
21.29
21.23
20.21
18.49
16.32
14.00
11.81
10.00
8.79
8.31
8.54
9.32
10.36
11.31
11.83
11.67
10.68
8.90
6.48
3.62
0.56
-2.54
-5.63
-8.78
-12.19
-16.10
-20.63
-25.65
-30.57
-34.42
-36.03
-34.42
-29.23
-20.94
-10.76
-0.22
9.25
16.75
21.99
25.13
26.60
26.84
26.21
25.00
23.51
21.99
20.71
19.90
19.68
20.09
21.01
22.20
23.36
24.20
24.51
24.21
23.30
21.85
19.93
17.66
15.17
12.57
9.91
7.17
4.28
1.23
-1.95
-5.15
-8.25
-11.20
-13.96
-16.54
-18.90
-21.00
-22.95
-25.11
-27.90
-31.69
-36.36
-41.15
-44.69
-45.52
-42.63
-35.88
-26.14
-14.91
-3.84
5.74
13.15
18.33
21.60
23.41
24.16
24.11
23.47
22.52
21.64
21.29
21.75
23.01
24.74
26.49
27.85
28.68
29.12
29.44
29.81
30.19
30.31
29.89
28.70
26.67
23.88
20.49
16.75
12.93
9.32
6.16
3.59
1.64
0.14
-1.16
-2.55
-4.26
-6.40
-8.97
-11.82
-14.80
-17.74
-20.53
-23.08
-25.45
-27.83
-30.52
-33.84
-37.91
-42.39
-46.40
-48.66
-47.92
-43.45
-35.44
-24.92
-13.42
-2.40
7.07
14.49
19.83
23.21
24.80
24.80
23.51
21.43
19.14
17.30
16.37
16.53
17.67
19.41
21.33
23.01
24.21
24.87
25.03
24.79
24.28
23.53
22.54
21.31
19.80
18.02
16.00
13.78
11.43
9.09
6.90
4.99
3.41
2.00
0.49
-1.49
-4.16
-7.48
-11.17
-14.76
-17.88
-20.43
-22.72
-25.24
-28.55
-32.99
-38.44
-44.27
-49.36
-52.32
-51.90
-47.37
-38.84
-27.32
-14.40
-1.80
9.13
17.62
23.54
27.12
28.76
28.79
27.52
25.31
22.63
20.06
18.15
17.28
17.52
18.62
20.13
21.56
22.61
23.20
23.49
23.64
23.71
23.57
22.94
21.56
19.35
16.52
13.47
10.69
8.50
6.97
5.85
4.74
3.25
1.14
-1.53
-4.58
-7.76
-10.94
-14.10
-17.29
-20.53
-23.73
-26.82
-29.88
-33.16
-37.00
-41.57
-46.49
-50.79
-53.06
-51.91
-46.66
-37.57
-25.86
-13.24
-1.38
8.55
16.00
20.94
23.62
24.35
23.50
21.47
18.80
16.17
14.19
13.33
13.76
15.29
17.45
19.72
21.64
22.94
23.58
23.64
23.21
22.32
20.95
19.05
16.66
13.90
10.89
7.77
4.59
1.43
-1.68
-4.69
-7.55
-10.24
-12.74
-15.01
-17.07
-19.01
-21.10
-23.79
-27.51
-32.43
-38.11
-43.47
-47.03
-47.38
-43.82
-36.57
-26.73
-15.83
-5.28
4.01
11.68
17.72
22.17
24.95
25.91
25.06
22.70
19.42
15.93
12.84
10.53
9.11
8.55
8.76
9.61
10.86
12.19
13.25
13.78
13.71
13.12
12.12
10.68
8.61
5.70
1.98
-2.19
-6.18
-9.40
-11.63
-13.16
-14.69
-17.01
-20.66
-25.67
-31.62
-37.66
-42.70
-45.64
-45.59
-42.10
-35.36
-26.11
-15.52
-4.81
5.00
13.18
19.29
23.08
24.51
23.77
21.43
18.28
15.15
12.63
11.00
10.20
10.07
10.40
11.03
11.79
12.50
12.98
13.17
13.04
12.63
11.92
10.82
9.16
6.90
4.03
0.72
-2.86
-6.57
-10.37
-14.24
-18.21
-22.36
-26.77
-31.49
-36.33
-40.74
-43.75
-44.20
-41.23
-34.62
-25.04
-13.82
-2.54
7.44
15.29
20.73
23.83
24.84
24.06
21.91
18.92
15.76
13.07
11.30
10.57
10.67
11.21
11.76
12.09
12.19
12.17
12.17
12.19
12.00
11.30
9.79
7.40
4.30
0.81
-2.68
-5.94
-8.92
-11.86
-15.16
-19.22
-24.25
-29.98
-35.56
-39.68
-40.98
-38.54
-32.28
-22.99
-12.11
-1.20
8.46
16.12
21.52
24.67
25.70
24.88
22.54
19.21
15.51
12.05
9.34
7.70
7.16
7.61
8.77
10.28
11.82
13.10
13.93
14.13
13.51
11.91
9.28
5.78
1.81
-2.18
-5.79
-8.88
-11.64
-14.44
-17.75
-21.86
-26.76
-32.12
-37.24
-41.15
-42.77
-41.19
-35.90
-27.12
-15.76
-3.28
8.66
18.63
25.74
29.73
30.84
29.64
26.80
22.95
18.68
14.58
11.28
9.27
8.81
9.79
11.74
13.99
15.87
16.98
17.24
16.76
15.70
14.11
11.88
8.88
5.11
0.80
-3.66
-7.83
-11.45
-14.56
-17.53
-20.91
-25.18
-30.44
-36.15
-41.20
-44.07
-43.43
-38.57
-29.76
-18.17
-5.55
6.37
16.35
23.82
28.74
31.36
31.96
30.69
27.77
23.60
18.82
14.23
10.64
8.54
8.04
8.82
10.29
11.83
12.97
13.46
13.30
12.51
11.18
9.30
6.85
3.89
0.52
-3.03
-6.63
-10.22
-13.99
-18.28
-23.36
-29.21
-35.29
-40.48
-43.38
-42.75
-38.00
-29.53
-18.58
-6.88
3.93
12.70
19.01
22.92
24.72
24.73
23.14
20.18
16.24
11.99
8.20
5.59
4.50
4.91
6.39
8.32
10.09
11.21
11.40
10.59
8.88
6.49
3.73
0.86
-1.97
-4.84
-8.07
-12.09
-17.25
-23.60
-30.62
-37.23
-42.01
-43.48
-40.69
-33.53
-22.90
-10.41
2.07
12.93
21.22
26.67
29.51
30.08
28.70
25.61
21.11
15.77
10.37
5.90
3.12
2.42
3.55
5.71
7.85
9.02
8.69
6.85
3.99
0.70
-2.54
-5.54
-8.44
-11.53
-15.11
-19.34
-24.30
-29.96
-36.15
-42.36
-47.61
-50.57
-49.91
-44.89
-35.70
-23.53
-10.25
2.26
12.62
20.18
24.93
27.22
27.44
26.01
23.29
19.79
16.12
12.98
10.96
10.34
10.99
12.37
13.72
14.27
13.62
11.78
9.11
6.07
2.99
-0.11
-3.48
-7.34
-11.88
-17.07
-22.89
-29.29
-36.20
-43.25
-49.60
-53.93
-54.76
-51.04
-42.59
-30.36
-16.12
-1.97
10.39
19.97
26.63
30.81
33.14
34.21
34.39
33.99
33.30
32.65
32.32
32.43
32.87
33.32
33.49
33.22
32.51
31.49
30.15
28.28
25.49
21.46
16.20
10.11
3.91
-1.72
-6.38
-10.13
-13.39
-16.81
-21.02
-26.47
-33.19
-40.70
-47.86
-53.10
-54.76
-51.66
-43.57
-31.35
-16.73
-1.73
11.85
22.90
31.00
36.29
39.23
40.35
40.24
39.47
38.55
37.92
37.89
38.59
39.96
41.74
43.60
45.24
46.43
47.09
47.22
46.80
45.71
43.77
40.82
36.84
32.07
26.97
22.10
17.85
14.30
11.14
7.90
4.15
-0.22
-5.03
-9.82
-14.13
-17.73
-20.69
-23.36
-26.29
-30.04
-35.07
-41.54
-49.03
-56.47
-62.23
-64.48
-61.84
-53.98
-41.81
-27.24
-12.46
0.69
11.24
19.09
24.66
28.53
31.11
32.62
33.16
32.97
32.44
32.08
32.32
33.28
34.76
36.25
37.19
37.23
36.41
35.14
33.95
33.18
32.76
32.26
31.07
28.79
25.43
21.39
17.36
13.83
11.03
8.77
6.62
4.13
1.03
-2.63
-6.62
-10.53
-14.06
-17.01
-19.45
-21.65
-24.02
-27.05
-31.10
-36.32
-42.40
-48.49
-53.29
-55.41
-53.72
-47.84
-38.27
-26.31
-13.62
-1.68
8.51
16.55
22.43
26.35
28.48
29.03
28.28
26.76
25.15
24.07
23.96
24.83
26.36
28.01
29.25
29.76
29.50
28.67
27.62
26.60
25.64
24.54
22.99
20.78
17.98
14.91
12.07
9.89
8.46
7.54
6.62
5.20
2.98
-0.09
-3.78
-7.74
-11.56
-14.90
-17.61
-19.69
-21.33
-22.86
-24.71
-27.32
-30.98
-35.64
-40.79
-45.44
-48.33
-48.35
-44.87
-38.03
-28.66
-18.02
-7.41
2.11
9.87
15.58
19.26
21.10
21.51
21.04
20.27
19.68
19.61
20.12
21.07
22.15
23.05
23.57
23.73
23.69
23.70
23.92
24.31
24.67
24.70
24.15
22.86
20.84
18.23
15.24
12.16
9.24
6.70
4.54
2.61
0.64
-1.62
-4.27
-7.12
-9.82
-12.12
-13.93
-15.47
-17.14
-19.29
-22.08
-25.50
-29.41
-33.69
-38.24
-42.78
-46.79
-49.42
-49.79
-47.23
-41.68
-33.70
-24.29
-14.61
-5.67
1.87
7.78
12.05
14.89
16.53
17.21
17.17
16.70
16.15
15.87
16.16
17.13
18.63
20.33
21.78
22.60
22.67
22.09
21.11
19.97
18.77
17.44
15.87
14.00
11.88
9.75
7.84
6.27
4.98
3.70
2.11
0.02
-2.55
-5.34
-8.05
-10.39
-12.30
-13.90
-15.45
-17.17
-19.25
-21.84
-25.05
-28.97
-33.49
-38.21
-42.34
-44.85
-44.82
-41.79
-36.00
-28.32
-19.93
-11.87
-4.84
0.92
5.46
8.85
11.13
12.35
12.67
12.41
12.03
11.95
12.41
13.44
14.82
16.30
17.61
18.64
19.33
19.71
19.83
19.68
19.19
18.19
16.59
14.45
11.98
9.53
7.36
5.53
3.86
2.03
-0.26
-3.00
-5.96
-8.78
-11.16
-13.10
-14.86
-16.84
-19.37
-22.61
-26.47
-30.72
-34.90
-38.44
-40.68
-41.01
-39.08
-34.86
-28.74
-21.40
-13.66
-6.28
0.21
5.46
9.31
11.74
12.89
12.98
12.36
11.44
10.61
10.16
10.24
10.82
11.71
12.64
13.35
13.74
13.82
13.75
13.69
13.68
13.63
13.29
12.41
10.82
8.53
5.74
2.76
-0.12
-2.75
-5.15
-7.45
-9.82
-12.32
-14.95
-17.69
-20.55
-23.60
-26.88
-30.20
-33.03
-34.62
-34.25
-31.55
-26.68
-20.25
-13.16
-6.24
-0.09
4.97
8.85
11.59
13.24
13.90
13.72
12.90
11.69
10.33
9.13
8.29
8.00
8.31
9.13
10.22
11.29
12.08
12.42
12.27
11.64
10.58
9.12
7.29
5.19
2.96
0.78
-1.26
-3.21
-5.28
-7.78
-10.95
-14.96
-19.72
-24.95
-30.08
-34.31
-36.79
-36.71
-33.75
-28.17
-20.88
-13.05
-5.82
0.12
4.62
7.90
10.26
11.87
12.71
12.67
11.84
10.49
9.03
7.87
7.19
6.90
6.83
6.80
6.78
6.81
6.96
7.09
7.00
6.41
5.19
3.42
1.34
-0.78
-2.82
-4.83
-6.96
-9.43
-12.35
-15.75
-19.63
-23.83
-27.98
-31.45
-33.37
-32.98
-29.84
-24.20
-16.88
-9.05
-1.83
4.06
8.33
11.07
12.53
12.95
12.49
11.37
9.91
8.50
7.49
7.10
7.36
8.15
9.26
10.41
11.36
11.85
11.69
10.80
9.20
7.12
4.80
2.47
0.21
-2.02
-4.35
-6.90
-9.72
-12.89
-16.46
-20.45
-24.64
-28.47
-31.08
-31.60
-29.42
-24.55
-17.64
-9.76
-2.06
4.60
9.72
13.18
15.07
15.56
14.94
13.50
11.58
9.47
7.46
5.74
4.51
3.89
3.93
4.56
5.50
6.44
7.07
7.24
6.91
6.15
5.01
3.48
1.58
-0.60
-2.90
-5.16
-7.32
-9.48
-11.90
-14.86
-18.48
-22.50
-26.30
-29.04
-29.83
-28.15
-24.00
-17.98
-11.05
-4.28
1.57
6.14
9.46
11.78
13.30
14.08
14.07
13.30
11.90
10.27
8.87
8.11
8.17
8.97
10.20
11.43
12.26
12.44
11.86
10.58
8.68
6.34
3.69
0.92
-1.79
-4.27
-6.45
-8.42
-10.54
-13.22
-16.74
-20.95
-25.17
-28.35
-29.41
-27.72
-23.29
-16.86
-9.51
-2.26
4.19
9.57
13.83
16.88
18.51
18.45
16.66
13.53
9.88
6.70
4.76
4.42
5.47
7.34
9.28
10.71
11.31
10.99
9.88
8.20
6.11
3.71
1.05
-1.85
-4.92
-8.15
-11.54
-15.24
-19.38
-23.89
-28.35
-31.89
-33.47
-32.24
-27.93
-20.97
-12.42
-3.53
4.52
10.95
15.46
18.02
18.84
18.23
16.55
14.27
11.86
9.74
8.30
7.68
7.84
8.54
9.40
10.10
10.40
10.16
9.36
8.01
6.14
3.84
1.21
-1.56
-4.36
-7.11
-9.94
-13.13
-17.03
-21.84
-27.49
-33.43
-38.68
-42.02
-42.39
-39.28
-32.95
-24.35
-14.78
-5.47
2.71
9.29
14.13
17.20
18.58
18.50
17.37
15.77
14.26
13.28
12.94
13.19
13.90
14.91
16.05
17.03
17.44
16.87
15.14
12.31
8.71
4.78
0.82
-3.05
-6.88
-10.80
-14.92
-19.37
-24.24
-29.55
-35.05
-40.05
-43.51
-44.28
-41.50
-35.05
-25.66
-14.67
-3.69
5.99
13.66
19.24
23.02
25.38
26.54
26.56
25.50
23.59
21.34
19.39
18.33
18.41
19.45
21.01
22.53
23.58
23.89
23.38
22.01
19.72
16.52
12.48
7.80
2.81
-2.13
-6.80
-11.14
-15.33
-19.74
-24.77
-30.63
-37.10
-43.33
-48.03
-49.77
-47.52
-41.08
-31.27
-19.57
-7.66
3.13
12.14
19.27
24.81
29.00
31.94
33.58
33.92
33.16
31.71
30.24
29.25
29.10
29.74
30.84
31.89
32.45
32.23
31.16
29.33
26.94
24.24
21.43
18.64
15.87
12.99
9.76
6.03
1.81
-2.71
-7.17
-11.20
-14.62
-17.43
-19.86
-22.33
-25.33
-29.32
-34.45
-40.43
-46.29
-50.60
-51.84
-48.95
-41.79
-31.24
-18.87
-6.45
4.62
13.66
20.60
25.68
29.17
31.19
31.79
31.12
29.59
27.85
26.58
26.25
26.97
28.46
30.18
31.59
32.39
32.46
31.93
30.97
29.71
28.11
26.12
23.69
20.80
17.58
14.17
10.70
7.22
3.74
0.23
-3.33
-6.88
-10.39
-13.77
-17.03
-20.21
-23.49
-27.08
-31.26
-36.15
-41.53
-46.77
-50.68
-51.92
-49.33
-42.51
-31.97
-19.05
-5.53
6.90
17.05
24.40
28.95
31.05
31.15
29.76
27.49
24.99
22.88
21.62
21.40
22.10
23.44
25.07
26.68
28.14
29.38
30.35
30.93
31.01
30.45
29.27
27.63
25.72
23.73
21.74
19.72
17.58
15.28
12.91
10.63
8.59
6.84
5.21
3.44
1.32
-1.26
-4.21
-7.39
-10.58
-13.67
-16.60
-19.31
-21.80
-24.05
-26.17
-28.39
-31.07
-34.61
-39.13
-44.33
-49.30
-52.75
-53.31
-50.00
-42.67
-32.06
-19.58
-6.89
4.59
13.94
20.80
25.18
27.31
27.49
26.04
23.45
20.34
17.44
15.45
14.86
15.83
18.07
20.99
23.85
26.06
27.36
27.78
27.57
27.03
26.29
25.36
24.13
22.48
20.42
18.08
15.63
13.27
11.10
9.09
7.17
5.29
3.40
1.51
-0.43
-2.53
-4.89
-7.59
-10.51
-13.37
-15.85
-17.76
-19.20
-20.57
-22.38
-25.10
-28.94
-33.74
-38.88
-43.38
-46.07
-45.87
-42.19
-35.16
-25.62
-14.94
-4.47
4.74
12.17
17.69
21.37
23.31
23.62
22.50
20.34
17.62
14.96
12.87
11.69
11.55
12.37
13.91
15.83
17.81
19.58
21.01
22.08
22.77
23.06
22.79
21.79
19.97
17.40
14.34
11.14
8.13
5.46
3.04
0.64
-1.97
-4.86
-7.88
-10.75
-13.30
-15.48
-17.43
-19.39
-21.62
-24.26
-27.41
-31.10
-35.28
-39.66
-43.57
-46.08
-46.14
-43.01
-36.55
-27.37
-16.69
-5.94
3.65
11.29
16.73
20.07
21.59
21.70
20.70
18.97
16.88
14.83
13.18
12.23
12.09
12.66
13.69
14.83
15.78
16.33
16.44
16.19
15.70
15.05
14.21
13.02
11.31
8.98
6.06
2.70
-0.85
-4.39
-7.80
-11.08
-14.24
-17.36
-20.43
-23.50
-26.67
-30.06
-33.83
-37.92
-42.01
-45.43
-47.24
-46.57
-42.87
-36.16
-27.12
-16.82
-6.49
2.85
10.56
16.36
20.22
22.21
22.45
21.17
18.80
15.89
13.05
10.75
9.21
8.32
7.84
7.52
7.29
7.23
7.48
8.12
9.01
9.86
10.25
9.88
8.51
6.11
2.80
-1.15
-5.42
-9.61
-13.41
-16.61
-19.11
-21.03
-22.60
-24.17
-26.13
-28.75
-32.07
-35.70
-38.88
-40.64
-40.08
-36.68
-30.56
-22.44
-13.43
-4.69
2.92
8.97
13.42
16.43
18.23
18.97
18.76
17.80
16.36
14.87
13.72
13.12
13.03
13.20
13.28
13.01
12.35
11.43
10.46
9.62
8.95
8.34
7.49
6.12
4.05
1.32
-1.82
-5.01
-7.95
-10.53
-12.88
-15.30
-18.15
-21.67
-25.88
-30.57
-35.21
-39.11
-41.45
-41.46
-38.70
-33.21
-25.52
-16.61
-7.55
0.71
7.57
12.79
16.39
18.44
19.03
18.35
16.69
14.57
12.62
11.41
11.23
11.96
13.16
14.28
14.92
14.99
14.64
14.07
13.33
12.30
10.72
8.40
5.45
2.13
-1.19
-4.26
-7.03
-9.69
-12.55
-15.97
-20.24
-25.54
-31.83
-38.76
-45.56
-51.18
-54.51
-54.75
-51.71
-45.96
-38.69
-31.26
-24.79
-19.79
-16.17
-13.51
-11.35
-9.47
-7.93
-6.92
-6.55
-6.74
-7.28
-7.89
-8.31
-8.38
-8.00
-7.18
-6.15
-5.32
-5.20
-6.11
-8.05
-10.55
-12.87
-14.44
-15.03
-14.96
-14.92
-15.60
-17.44
-20.32
-23.68
-26.65
-28.43
-28.58
-27.09
-24.22
-20.36
-15.74
-10.42
-4.44
2.03
8.60
14.71
19.84
23.80
26.74
29.15
31.65
34.68
38.38
42.47
46.51
50.02
52.73
54.68
56.31
58.20
60.93
64.83
69.89
75.74
81.82
87.47
92.13
95.43
97.19
97.42
96.28
94.05
91.09
87.78
84.30
80.59
76.30
71.01
64.52
57.20
49.96
43.98
40.19
38.83
39.44
41.07
42.77
44.01
44.72
45.04
44.97
44.14
41.85
37.53
31.17
23.43
15.46
8.31
2.43
-2.47
-7.04
-11.79
-16.71
-21.20
-24.64
-26.79
-28.02
-29.14
-30.96
-33.96
-38.22
-43.78
-50.89
-60.18
-72.25
-87.10
-103.71
-120.03
-133.47
-141.74
-143.61
-139.22
-129.92
-117.59
-104.00
-90.39
-77.37
-65.29
-54.43
-45.17
-37.93
-32.95
-30.15
-29.08
-29.06
-29.37
-29.34
-28.58
-27.06
-25.00
-22.85
-21.07
-19.97
-19.64
-19.99
-20.94
-22.52
-24.92
-28.34
-32.91
-38.60
-45.25
-52.68
-60.66
-68.84
-76.68
-83.37
-87.93
-89.41
-87.23
-81.33
-72.23
-60.88
-48.41
-35.80
-23.75
-12.61
-2.31
7.50
17.42
28.17
40.42
54.65
70.93
88.84
107.38
125.24
141.06
153.79
162.92
168.45
170.67
169.85
165.99
158.88
148.17
133.75
115.88
95.31
73.16
50.86
29.91
11.80
-2.28
-11.55
-15.93
-16.11
-13.40
-9.45
-5.84
-3.65
-3.32
-4.71
-7.32
-10.59
-14.09
-17.51
-20.57
-22.95
-24.25
-24.19
-22.77
-20.35
-17.62
-15.32
-13.98
-13.68
-14.12
-14.79
-15.33
-15.79
-16.59
-18.43
-21.88
-27.07
-33.46
-39.92
-45.03
-47.54
-46.75
-42.67
-36.04
-27.98
-19.61
-11.82
-5.14
0.22
4.20
6.76
7.88
7.60
6.12
3.85
1.40
-0.60
-1.73
-1.98
-1.74
-1.65
-2.30
-3.92
-6.21
-8.54
-10.29
-11.17
-11.50
-12.06
-13.72
-17.01
-21.89
-27.70
-33.40
-37.82
-39.98
-39.29
-35.57
-29.16
-20.79
-11.50
-2.34
5.86
12.61
17.77
21.41
23.60
24.36
23.74
21.90
19.26
16.40
13.92
12.23
11.39
11.16
11.07
10.66
9.66
8.02
5.90
3.53
1.15
-1.16
-3.47
-6.07
-9.27
-13.35
-18.37
-24.02
-29.68
-34.38
-37.10
-36.89
-33.16
-25.88
-15.68
-3.78
8.33
19.17
27.70
33.46
36.56
37.49
36.89
35.35
33.36
31.33
29.62
28.42
27.71
27.27
26.76
25.86
24.51
22.87
21.28
20.00
19.08
18.31
17.28
15.60
13.01
9.50
5.24
0.58
-4.18
-8.80
-13.20
-17.45
-21.73
-26.31
-31.31
-36.67
-41.89
-46.08
-48.07
-46.79
-41.69
-33.08
-22.11
-10.35
0.67
9.93
17.12
22.44
26.29
28.88
30.26
30.38
29.31
27.38
25.10
23.00
21.50
20.78
20.83
21.44
22.32
23.12
23.54
23.42
22.76
21.67
20.34
18.84
17.14
15.10
12.61
9.67
6.43
3.12
-0.06
-3.10
-6.08
-9.13
-12.31
-15.63
-18.98
-22.34
-25.83
-29.61
-33.87
-38.46
-42.91
-46.29
-47.56
-45.85
-40.84
-32.86
-22.83
-11.98
-1.48
7.87
15.63
21.71
26.16
29.08
30.54
30.74
30.03
28.82
27.61
26.72
26.28
26.20
26.30
26.38
26.38
26.29
26.15
25.91
25.44
24.59
23.27
21.49
19.36
17.05
14.66
12.22
9.66
6.89
3.88
0.64
-2.76
-6.25
-9.72
-13.08
-16.27
-19.35
-22.46
-25.81
-29.63
-33.90
-38.25
-42.00
-44.27
-44.23
-41.41
-35.76
-27.73
-18.15
-8.03
1.55
9.69
15.82
19.75
21.73
22.23
21.81
20.93
19.87
18.80
17.84
17.13
16.76
16.74
17.04
17.61
18.39
19.30
20.24
21.03
21.47
21.41
20.84
19.83
18.54
17.06
15.35
13.29
10.75
7.68
4.14
0.32
-3.56
-7.31
-10.82
-14.10
-17.18
-20.19
-23.30
-26.61
-30.20
-33.89
-37.28
-39.75
-40.59
-39.19
-35.27
-29.05
-21.21
-12.61
-4.11
3.74
10.57
16.22
20.57
23.52
25.01
25.13
24.15
22.47
20.58
18.87
17.59
16.82
16.46
16.32
16.26
16.17
16.10
16.14
16.36
16.69
16.90
16.63
15.59
13.69
11.06
8.05
4.99
2.04
-0.82
-3.72
-6.79
-9.95
-13.02
-15.80
-18.30
-20.74
-23.46
-26.61
-29.90
-32.58
-33.63
-32.23
-28.13
-21.74
-14.03
-6.13
1.08
7.08
11.72
15.09
17.23
18.17
18.00
16.89
15.24
13.49
12.01
10.99
10.42
10.11
9.88
9.65
9.45
9.38
9.52
9.85
10.22
10.38
10.04
8.93
6.98
4.32
1.23
-1.89
-4.78
-7.25
-9.35
-11.29
-13.31
-15.67
-18.58
-22.00
-25.67
-29.08
-31.46
-32.05
-30.28
-26.04
-19.74
-12.25
-4.59
2.33
7.92
11.97
14.59
16.02
16.50
16.20
15.25
13.76
11.93
9.97
8.12
6.56
5.31
4.32
3.51
2.83
2.28
1.89
1.61
1.34
0.91
0.18
-0.98
-2.59
-4.59
-6.93
-9.48
-12.17
-14.98
-17.95
-21.10
-24.33
-27.24
-29.16
-29.32
-27.14
-22.57
-16.09
-8.66
-1.29
5.26
10.63
14.79
17.80
19.66
20.24
19.49
17.49
14.60
11.34
8.22
5.58
3.56
2.08
1.02
0.22
-0.45
-1.09
-1.79
-2.55
-3.33
-4.04
-4.60
-5.05
-5.56
-6.37
-7.80
-10.03
-13.13
-16.90
-20.86
-24.32
-26.54
-26.93
-25.15
-21.20
-15.43
-8.47
-1.04
6.05
12.09
16.59
19.29
20.36
20.12
18.99
17.32
15.28
12.90
10.17
7.27
4.49
2.26
0.86
0.35
0.53
0.96
1.26
1.15
0.57
-0.38
-1.56
-2.88
-4.33
-6.03
-8.12
-10.75
-13.86
-17.21
-20.33
-22.58
-23.31
-22.07
-18.73
-13.62
-7.39
-0.84
5.35
10.69
14.94
17.95
19.59
19.72
18.24
15.28
11.32
7.10
3.45
1.01
-0.07
-0.08
0.44
0.87
0.87
0.41
-0.36
-1.22
-2.02
-2.75
-3.55
-4.60
-6.18
-8.52
-11.74
-15.72
-20.03
-23.93
-26.62
-27.34
-25.75
-21.88
-16.15
-9.23
-1.86
5.24
11.49
16.43
19.83
21.62
21.95
21.05
19.20
16.68
13.81
10.94
8.34
6.25
4.67
3.42
2.25
0.95
-0.56
-2.14
-3.58
-4.69
-5.46
-6.04
-6.72
-7.80
-9.55
-12.11
-15.38
-19.02
-22.36
-24.59
-24.99
-23.09
-18.95
-13.06
-6.27
0.53
6.67
11.73
15.52
17.98
18.99
18.50
16.57
13.50
9.82
6.19
3.19
1.14
0.03
-0.42
-0.58
-0.72
-0.97
-1.24
-1.42
-1.42
-1.28
-1.19
-1.38
-2.09
-3.51
-5.77
-8.92
-12.88
-17.35
-21.77
-25.34
-27.21
-26.72
-23.61
-18.21
-11.26
-3.75
3.38
9.43
13.95
16.66
17.48
16.49
13.96
10.47
6.73
3.47
1.21
0.13
0.03
0.46
0.97
1.19
1.02
0.54
-0.06
-0.57
-0.91
-1.12
-1.48
-2.45
-4.46
-7.79
-12.31
-17.45
-22.24
-25.65
-26.87
-25.58
-22.06
-16.99
-11.21
-5.42
-0.16
4.33
7.91
10.45
11.80
11.79
10.39
7.84
4.62
1.34
-1.40
-3.29
-4.30
-4.69
-4.76
-4.76
-4.80
-4.92
-5.19
-5.74
-6.74
-8.37
-10.77
-14.02
-18.06
-22.60
-27.14
-30.91
-33.14
-33.26
-31.07
-26.77
-20.85
-13.89
-6.48
0.79
7.31
12.42
15.51
16.24
14.71
11.47
7.38
3.36
0.14
-2.00
-3.21
-3.95
-4.73
-5.84
-7.22
-8.63
-9.80
-10.70
-11.58
-12.85
-14.97
-18.17
-22.55
-27.93
-33.97
-40.01
-45.08
-48.05
-47.94
-44.26
-37.26
-27.89
-17.42
-7.11
2.05
9.46
14.72
17.58
17.96
16.03
12.37
7.93
3.76
0.76
-0.65
-0.63
0.24
1.21
1.65
1.23
0.05
-1.63
-3.48
-5.30
-7.17
-9.39
-12.42
-16.76
-22.66
-29.91
-37.71
-44.66
-49.04
-49.27
-44.48
-34.88
-21.80
-7.32
6.47
17.96
26.46
32.01
35.11
36.25
35.75
33.82
30.78
27.18
23.77
21.34
20.35
20.75
22.07
23.65
24.78
25.07
24.35
22.67
20.15
16.92
13.06
8.71
4.01
-0.84
-5.65
-10.38
-15.22
-20.53
-26.72
-33.92
-41.67
-48.73
-53.37
-53.78
-48.80
-38.36
-23.70
-6.96
9.46
23.61
34.37
41.59
45.83
47.91
48.59
48.45
47.83
47.00
46.19
45.69
45.74
46.38
47.47
48.67
49.68
50.30
50.50
50.35
49.85
48.91
47.37
45.20
42.47
39.46
36.42
33.47
30.56
27.53
24.29
20.90
17.52
14.31
11.33
8.45
5.47
2.23
-1.32
-5.09
-8.94
-12.75
-16.39
-19.79
-23.03
-26.23
-29.65
-33.66
-38.63
-44.69
-51.53
-58.29
-63.54
-65.69
-63.41
-56.19
-44.59
-30.08
-14.67
-0.29
11.70
20.71
26.82
30.40
31.95
31.86
30.59
28.69
26.87
25.86
26.15
27.88
30.66
33.80
36.52
38.37
39.20
39.22
38.73
37.95
36.89
35.46
33.56
31.19
28.43
25.37
22.11
18.70
15.24
11.85
8.64
5.64
2.71
-0.39
-3.84
-7.60
-11.42
-14.92
-17.83
-20.20
-22.40
-25.01
-28.59
-33.48
-39.58
-46.34
-52.77
-57.59
-59.46
-57.27
-50.54
-39.59
-25.64
-10.46
3.98
16.14
25.18
31.06
34.27
35.58
35.65
34.96
33.88
32.73
31.86
31.55
31.97
33.06
34.55
36.02
37.12
37.63
37.50
36.87
35.87
34.65
33.19
31.40
29.17
26.42
23.22
19.74
16.20
12.77
9.58
6.65
3.84
0.96
-2.23
-5.92
-10.18
-14.80
-19.44
-23.67
-27.22
-30.13
-32.74
-35.64
-39.38
-44.18
-49.81
-55.51
-60.12
-62.29
-60.84
-55.08
-45.06
-31.72
-16.64
-1.70
11.39
21.52
28.31
32.00
33.20
32.62
30.93
28.75
26.63
25.06
24.34
24.51
25.40
26.64
27.91
28.98
29.84
30.56
31.26
32.01
32.69
33.08
32.81
31.54
29.06
25.50
21.28
16.97
13.07
9.75
6.86
3.95
0.65
-3.24
-7.57
-12.03
-16.26
-20.02
-23.26
-26.07
-28.74
-31.60
-35.05
-39.29
-44.12
-48.86
-52.33
-53.26
-50.62
-44.13
-34.36
-22.60
-10.44
0.65
9.72
16.35
20.57
22.68
23.10
22.34
20.94
19.47
18.44
18.13
18.59
19.61
20.84
21.98
22.80
23.24
23.27
22.91
22.13
20.91
19.21
17.07
14.67
12.18
9.81
7.58
5.42
3.13
0.50
-2.51
-5.80
-9.10
-12.16
-14.86
-17.29
-19.63
-22.15
-25.04
-28.41
-32.25
-36.31
-40.08
-42.80
-43.57
-41.60
-36.56
-28.68
-18.76
-8.00
2.37
11.32
18.19
22.75
25.03
25.29
23.92
21.45
18.49
15.67
13.55
12.47
12.45
13.27
14.49
15.65
16.44
16.73
16.59
16.16
15.56
14.84
13.96
12.75
11.08
8.86
6.09
2.91
-0.46
-3.79
-6.85
-9.56
-11.95
-14.20
-16.54
-19.25
-22.52
-26.42
-30.75
-35.04
-38.49
-40.22
-39.48
-35.90
-29.69
-21.57
-12.54
-3.62
4.39
11.03
16.11
19.63
21.61
22.15
21.49
19.99
18.15
16.44
15.21
14.55
14.35
14.36
14.38
14.32
14.17
13.97
13.73
13.38
12.84
12.02
10.83
9.21
7.09
4.43
1.22
-2.40
-6.15
-9.72
-12.93
-15.82
-18.69
-21.91
-25.68
-29.85
-33.87
-36.88
-38.02
-36.73
-32.90
-26.88
-19.36
-11.13
-2.94
4.54
10.78
15.36
18.10
19.01
18.39
16.67
14.37
11.99
9.90
8.37
7.46
7.11
7.13
7.27
7.33
7.24
7.06
6.88
6.74
6.55
6.12
5.20
3.65
1.51
-0.99
-3.61
-6.16
-8.60
-11.06
-13.78
-17.04
-20.90
-25.16
-29.23
-32.23
-33.31
-31.88
-27.87
-21.83
-14.63
-7.24
-0.36
5.60
10.50
14.27
16.81
17.98
17.66
15.97
13.21
9.93
6.71
4.13
2.55
2.10
2.61
3.62
4.59
4.98
4.52
3.18
1.24
-0.96
-3.16
-5.27
-7.46
-9.94
-12.95
-16.52
-20.45
-24.32
-27.55
-29.58
-29.98
-28.57
-25.40
-20.74
-14.99
-8.62
-2.13
3.98
9.21
13.08
15.25
15.56
14.14
11.35
7.80
4.17
1.07
-1.12
-2.25
-2.53
-2.31
-2.07
-2.17
-2.79
-3.96
-5.51
-7.20
-8.81
-10.28
-11.75
-13.56
-16.12
-19.71
-24.31
-29.41
-34.08
-37.18
-37.65
-34.93
-29.15
-21.06
-11.81
-2.61
5.57
12.12
16.78
19.49
20.30
19.32
16.74
12.99
8.70
4.65
1.52
-0.29
-0.82
-0.58
-0.27
-0.49
-1.49
-3.16
-5.10
-6.95
-8.57
-10.13
-12.00
-14.67
-18.55
-23.78
-30.14
-36.94
-43.07
-47.22
-48.18
-45.25
-38.49
-28.76
-17.41
-5.89
4.64
13.47
20.30
25.00
27.53
27.92
26.27
22.98
18.71
14.29
10.56
8.12
7.14
7.43
8.49
9.65
10.26
9.86
8.29
5.69
2.49
-0.89
-4.14
-7.20
-10.35
-14.02
-18.64
-24.38
-30.99
-37.72
-43.30
-46.28
-45.37
-39.92
-30.14
-17.25
-3.07
10.46
21.82
30.12
35.15
37.16
36.59
34.12
30.49
26.56
23.19
21.00
20.24
20.69
21.82
22.95
23.65
23.73
23.27
22.54
21.76
21.01
20.10
18.72
16.47
13.11
8.71
3.62
-1.59
-6.39
-10.52
-14.15
-17.82
-22.23
-27.89
-34.74
-42.01
-48.27
-51.80
-51.08
-45.39
-35.07
-21.52
-6.76
7.15
18.68
27.20
32.79
36.00
37.43
37.54
36.67
35.19
33.55
32.26
31.74
32.07
33.03
34.21
35.22
35.92
36.29
36.41
36.29
35.85
35.00
33.76
32.28
30.73
29.14
27.39
25.22
22.40
18.95
15.18
11.50
8.31
5.71
3.45
1.10
-1.75
-5.29
-9.32
-13.48
-17.35
-20.74
-23.74
-26.65
-29.85
-33.64
-38.21
-43.59
-49.60
-55.79
-61.23
-64.65
-64.65
-60.25
-51.32
-38.75
-24.20
-9.61
3.50
14.22
22.30
27.87
31.12
32.27
31.62
29.72
27.40
25.52
24.77
25.42
27.27
29.77
32.32
34.44
35.86
36.54
36.57
36.11
35.21
33.90
32.13
29.82
26.99
23.72
20.19
16.64
13.27
10.22
7.50
4.97
2.44
-0.34
-3.58
-7.33
-11.44
-15.56
-19.26
-22.24
-24.47
-26.31
-28.45
-31.62
-36.32
-42.44
-49.17
-55.16
-58.82
-58.86
-54.61
-46.28
-34.81
-21.59
-8.11
4.37
14.94
23.04
28.44
31.14
31.48
30.02
27.50
24.77
22.49
21.11
20.72
21.16
22.10
23.25
24.41
25.52
26.61
27.70
28.76
29.65
30.18
30.11
29.23
27.46
24.81
21.44
17.61
13.61
9.71
6.08
2.79
-0.28
-3.29
-6.48
-9.97
-13.82
-17.89
-21.91
-25.63
-28.92
-31.93
-35.03
-38.71
-43.22
-48.38
-53.38
-57.00
-57.97
-55.37
-49.02
-39.49
-27.82
-15.27
-2.98
8.19
17.63
24.91
29.79
32.23
32.45
30.90
28.25
25.22
22.46
20.44
19.36
19.21
19.80
20.88
22.17
23.46
24.56
25.36
25.67
25.38
24.33
22.53
20.12
17.40
14.63
12.02
9.66
7.41
5.09
2.53
-0.35
-3.49
-6.74
-10.01
-13.27
-16.56
-20.02
-23.73
-27.81
-32.32
-37.22
-42.26
-46.86
-50.11
-50.96
-48.59
-42.69
-33.72
-22.77
-11.21
-0.31
9.08
16.53
21.91
25.18
26.43
25.82
23.74
20.84
17.81
15.31
13.70
13.08
13.33
14.25
15.61
17.23
18.94
20.49
21.62
22.13
21.93
21.04
19.59
17.70
15.46
12.91
10.04
6.87
3.49
0.04
-3.34
-6.59
-9.73
-12.94
-16.39
-20.26
-24.61
-29.33
-34.11
-38.42
-41.60
-42.93
-41.89
-38.26
-32.25
-24.42
-15.55
-6.49
2.03
9.40
15.12
18.82
20.41
20.07
18.32
15.86
13.38
11.34
9.90
9.00
8.46
8.18
8.19
8.50
9.13
9.97
10.85
11.58
11.94
11.72
10.70
8.76
5.90
2.37
-1.41
-4.99
-8.07
-10.64
-12.98
-15.55
-18.76
-22.82
-27.50
-32.26
-36.23
-38.42
-37.94
-34.32
-27.68
-18.74
-8.72
1.12
9.69
16.33
20.86
23.33
23.95
22.96
20.68
17.53
14.06
10.80
8.12
6.20
5.00
4.37
4.18
4.39
4.88
5.48
5.85
5.70
4.76
2.97
0.47
-2.50
-5.63
-8.68
-11.52
-14.18
-16.89
-20.00
-23.77
-28.10
-32.41
-35.67
-36.78
-34.91
-29.94
-22.44
-13.43
-4.09
4.62
11.98
17.58
21.18
22.74
22.39
20.46
17.47
13.95
10.44
7.28
4.74
2.97
2.02
1.79
2.08
2.60
3.06
3.26
3.08
2.46
1.41
-0.07
-1.89
-3.93
-6.12
-8.50
-11.24
-14.65
-18.87
-23.75
-28.62
-32.43
-34.08
-32.76
-28.30
-21.18
-12.38
-3.04
5.82
13.47
19.48
23.60
25.64
25.56
23.44
19.63
14.76
9.63
5.04
1.57
-0.48
-1.21
-0.94
-0.17
0.61
1.04
0.98
0.49
-0.28
-1.21
-2.33
-3.87
-6.24
-9.83
-14.80
-20.89
-27.38
-33.25
-37.42
-38.99
-37.51
-33.02
-25.98
-17.14
-7.46
2.12
10.69
17.56
22.25
24.55
24.54
22.54
19.08
14.76
10.25
6.14
2.90
0.78
-0.29
-0.62
-0.70
-1.01
-1.89
-3.39
-5.35
-7.45
-9.48
-11.40
-13.46
-16.11
-19.83
-24.83
-30.91
-37.33
-42.92
-46.37
-46.53
-42.81
-35.31
-24.87
-12.77
-0.46
10.78
20.07
26.91
31.09
32.62
31.64
28.47
23.67
18.08
12.66
8.27
5.41
4.14
4.09
4.66
5.18
5.10
4.14
2.28
-0.24
-3.10
-6.05
-8.99
-12.12
-15.83
-20.61
-26.74
-34.03
-41.64
-48.17
-51.94
-51.53
-46.28
-36.44
-23.30
-8.66
5.56
17.78
27.07
33.05
35.81
35.70
33.24
29.04
23.78
18.26
13.25
9.46
7.34
6.97
7.97
9.61
11.01
11.47
10.70
8.83
6.29
3.49
0.62
-2.52
-6.31
-11.13
-17.23
-24.58
-32.91
-41.54
-49.44
-55.22
-57.32
-54.49
-46.29
-33.40
-17.52
-0.97
14.08
26.05
34.25
38.82
40.28
39.41
36.92
33.51
29.83
26.44
23.81
22.14
21.45
21.56
22.21
23.13
24.13
24.95
25.34
25.00
23.60
20.96
17.06
12.20
6.82
1.42
-3.61
-8.15
-12.41
-16.92
-22.31
-29.10
-37.31
-46.25
-54.47
-59.99
-60.88
-55.93
-45.08
-29.54
-11.50
6.53
22.37
34.58
42.65
46.80
47.75
46.37
43.54
40.06
36.61
33.78
31.97
31.43
32.10
33.73
35.89
38.07
39.80
40.77
40.84
39.98
38.28
35.86
32.88
29.48
25.84
22.05
18.18
14.19
9.96
5.43
0.57
-4.50
-9.56
-14.38
-18.79
-22.77
-26.49
-30.28
-34.57
-39.78
-46.09
-53.24
-60.29
-65.75
-67.82
-64.96
-56.49
-42.90
-25.85
-7.72
9.16
23.06
33.18
39.55
42.69
43.26
41.81
38.91
35.21
31.55
28.79
27.66
28.39
30.78
34.21
37.91
41.22
43.70
45.12
45.48
44.88
43.48
41.45
38.91
35.88
32.35
28.34
23.96
19.46
15.16
11.35
8.06
5.11
2.07
-1.47
-5.75
-10.69
-15.85
-20.72
-24.83
-28.02
-30.55
-32.98
-35.94
-40.01
-45.44
-52.05
-59.22
-65.83
-70.43
-71.49
-67.84
-59.03
-45.62
-29.14
-11.71
4.54
17.98
27.81
34.00
37.05
37.62
36.42
34.04
31.08
28.16
25.88
24.75
25.01
26.61
29.20
32.19
34.99
37.11
38.25
38.41
37.82
36.77
35.49
33.95
31.99
29.31
25.85
21.76
17.44
13.40
9.92
7.03
4.44
1.76
-1.37
-5.05
-9.24
-13.70
-18.11
-22.21
-25.79
-28.79
-31.34
-33.76
-36.53
-40.20
-45.13
-51.27
-57.99
-64.07
-67.96
-68.15
-63.63
-54.24
-40.74
-24.70
-8.03
7.36
20.13
29.50
35.37
38.04
38.07
36.06
32.70
28.74
24.97
22.20
20.96
21.40
23.25
25.93
28.77
31.21
32.98
33.99
34.36
34.25
33.71
32.69
31.01
28.45
24.94
20.61
15.85
11.24
7.23
4.00
1.34
-1.26
-4.33
-8.15
-12.64
-17.36
-21.77
-25.47
-28.38
-30.82
-33.36
-36.63
-41.07
-46.69
-52.96
-58.91
-63.26
-64.77
-62.51
-56.12
-45.93
-32.89
-18.40
-4.00
8.92
19.32
26.78
31.31
33.33
33.38
32.02
29.73
26.95
24.13
21.73
20.22
19.89
20.81
22.70
25.04
27.19
28.58
28.85
27.96
26.10
23.57
20.69
17.61
14.33
10.82
7.05
3.09
-0.91
-4.81
-8.58
-12.23
-15.77
-19.19
-22.39
-25.39
-28.36
-31.67
-35.74
-40.78
-46.43
-51.79
-55.53
-56.29
-53.12
-45.82
-34.97
-21.78
-7.78
5.57
17.01
25.70
31.23
33.66
33.39
31.17
27.83
24.14
20.66
17.63
15.12
13.12
11.70
10.90
10.81
11.35
12.25
13.14
13.64
13.50
12.58
10.90
8.51
5.48
1.98
-1.83
-5.70
-9.44
-12.95
-16.19
-19.27
-22.37
-25.75
-29.73
-34.47
-39.81
-45.06
-49.09
-50.58
-48.51
-42.53
-33.16
-21.59
-9.28
2.41
12.56
20.62
26.34
29.62
30.48
29.20
26.24
22.27
18.06
14.22
11.10
8.77
7.19
6.24
5.87
6.04
6.60
7.26
7.60
7.18
5.78
3.43
0.44
-2.83
-6.10
-9.33
-12.75
-16.72
-21.56
-27.35
-33.88
-40.57
-46.55
-50.75
-52.13
-49.86
-43.61
-33.69
-21.05
-7.14
6.41
18.12
26.95
32.43
34.60
33.83
30.70
25.87
20.10
14.21
9.01
5.12
2.84
2.09
2.41
3.18
3.78
3.81
3.11
1.76
-0.08
-2.17
-4.39
-6.68
-9.17
-12.09
-15.78
-20.47
-26.18
-32.51
-38.56
-43.04
-44.57
-42.10
-35.30
-24.75
-11.81
1.79
14.40
24.88
32.64
37.57
39.75
39.31
36.48
31.69
25.69
19.48
14.06
10.16
7.98
7.19
7.13
7.04
6.39
5.02
3.06
0.89
-1.19
-3.00
-4.65
-6.45
-8.88
-12.38
-17.22
-23.34
-30.20
-36.73
-41.44
-42.75
-39.54
-31.58
-19.69
-5.60
8.65
21.27
31.13
37.79
41.34
41.99
39.97
35.60
29.45
22.43
15.77
10.60
7.64
6.89
7.68
9.00
9.87
9.69
8.40
6.36
4.03
1.81
-0.26
-2.36
-4.83
-8.02
-12.22
-17.56
-23.93
-30.82
-37.22
-41.74
-42.89
-39.59
-31.62
-19.87
-6.02
7.92
20.23
29.93
36.68
40.59
41.82
40.50
36.76
30.98
23.96
16.81
10.71
6.49
4.44
4.24
5.12
6.24
6.96
6.95
6.24
5.01
3.48
1.77
-0.20
-2.60
-5.72
-9.83
-15.13
-21.63
-28.92
-36.06
-41.66
-44.14
-42.26
-35.53
-24.56
-10.88
3.45
16.47
26.81
33.87
37.73
38.79
37.54
34.34
29.59
23.77
17.64
12.10
7.96
5.72
5.32
6.18
7.34
7.92
7.34
5.59
3.13
0.62
-1.45
-3.03
-4.62
-6.94
-10.67
-16.04
-22.75
-30.00
-36.69
-41.58
-43.55
-41.78
-35.92
-26.41
-14.34
-1.31
11.00
21.26
28.71
33.15
34.62
33.34
29.55
23.73
16.68
9.55
3.60
-0.20
-1.45
-0.45
1.90
4.44
6.17
6.53
5.50
3.47
0.99
-1.48
-3.77
-6.04
-8.62
-11.89
-16.19
-21.60
-27.86
-34.28
-39.71
-42.77
-42.19
-37.25
-28.17
-16.09
-2.78
9.90
20.52
28.27
32.92
34.57
33.43
29.80
24.20
17.57
11.12
6.06
3.20
2.64
3.84
5.81
7.55
8.32
7.88
6.29
3.86
0.97
-2.13
-5.29
-8.53
-12.03
-16.03
-20.80
-26.55
-33.18
-40.14
-46.37
-50.34
-50.47
-45.73
-36.07
-22.68
-7.66
6.65
18.42
26.73
31.63
33.71
33.64
31.93
28.88
24.88
20.49
16.47
13.47
11.85
11.56
12.17
13.15
14.04
14.56
14.55
13.91
12.44
9.98
6.48
2.02
-3.02
-8.16
-12.89
-16.91
-20.27
-23.39
-26.93
-31.57
-37.66
-44.80
-51.80
-56.77
-57.74
-53.31
-43.36
-29.09
-12.74
3.16
16.61
26.53
32.77
35.84
36.41
35.10
32.47
29.14
25.81
23.23
21.95
22.14
23.50
25.39
27.02
27.81
27.52
26.29
24.56
22.77
21.19
19.68
17.81
15.03
10.99
5.73
-0.31
-6.33
-11.69
-15.99
-19.32
-22.13
-25.07
-28.75
-33.59
-39.73
-46.87
-54.25
-60.54
-64.11
-63.40
-57.44
-46.35
-31.44
-14.86
1.02
14.32
24.07
30.29
33.66
35.06
35.20
34.54
33.32
31.74
30.12
28.87
28.35
28.66
29.61
30.75
31.66
32.12
32.16
31.97
31.63
31.00
29.71
27.44
24.13
20.13
16.03
12.43
9.61
7.37
5.20
2.46
-1.22
-5.81
-10.86
-15.72
-19.79
-22.85
-25.11
-27.11
-29.63
-33.36
-38.71
-45.51
-52.93
-59.46
-63.18
-62.35
-56.07
-44.64
-29.70
-13.66
1.08
12.83
21.01
25.99
28.64
29.80
30.00
29.45
28.33
26.88
25.64
25.16
25.83
27.62
30.00
32.16
33.46
33.65
33.09
32.42
32.20
32.46
32.69
32.08
29.98
26.27
21.47
16.42
11.91
8.35
5.67
3.45
1.24
-1.36
-4.49
-8.09
-11.95
-15.76
-19.21
-22.17
-24.71
-27.16
-30.01
-33.77
-38.77
-44.97
-51.81
-58.17
-62.53
-63.24
-59.14
-49.96
-36.62
-20.98
-5.26
8.59
19.45
27.07
31.81
34.21
34.74
33.69
31.40
28.42
25.53
23.49
22.78
23.47
25.11
26.99
28.48
29.20
29.15
28.68
28.17
27.83
27.63
27.24
26.30
24.59
22.10
19.03
15.68
12.34
9.23
6.45
3.96
1.54
-1.07
-4.18
-7.88
-11.99
-16.13
-19.82
-22.79
-25.12
-27.25
-29.82
-33.44
-38.34
-44.35
-50.79
-56.59
-60.41
-60.99
-57.44
-49.54
-37.97
-24.12
-9.75
3.47
14.33
22.34
27.52
30.29
31.11
30.40
28.55
26.01
23.32
21.13
19.91
19.83
20.69
21.97
23.13
23.80
23.96
23.80
23.54
23.23
22.69
21.63
19.82
17.27
14.22
11.10
8.28
5.97
4.11
2.50
0.80
-1.23
-3.74
-6.72
-9.98
-13.30
-16.40
-19.07
-21.28
-23.17
-25.17
-27.78
-31.43
-36.19
-41.59
-46.65
-50.07
-50.62
-47.52
-40.66
-30.69
-18.78
-6.39
5.06
14.45
21.17
25.11
26.59
26.19
24.64
22.59
20.59
19.04
18.17
18.02
18.47
19.33
20.36
21.39
22.31
23.07
23.61
23.85
23.70
23.06
21.93
20.36
18.42
16.17
13.65
10.89
7.87
4.59
1.05
-2.73
-6.62
-10.38
-13.76
-16.58
-18.82
-20.71
-22.63
-25.01
-28.17
-32.16
-36.68
-41.11
-44.54
-45.99
-44.66
-40.12
-32.58
-22.83
-12.10
-1.72
7.26
14.18
18.85
21.41
22.15
21.43
19.60
17.13
14.53
12.32
10.89
10.42
10.86
11.92
13.25
14.47
15.27
15.52
15.22
14.51
13.59
12.59
11.48
10.11
8.21
5.60
2.26
-1.61
-5.64
-9.48
-12.88
-15.79
-18.30
-20.68
-23.25
-26.26
-29.74
-33.38
-36.45
-38.01
-37.20
-33.54
-27.13
-18.64
-9.12
0.31
8.69
15.40
20.10
22.74
23.47
22.60
20.55
17.84
15.05
12.67
11.05
10.27
10.24
10.64
11.13
11.45
11.42
11.01
10.24
9.16
7.82
6.28
4.61
2.85
1.03
-0.91
-3.02
-5.36
-7.95
-10.82
-14.06
-17.77
-22.02
-26.58
-30.92
-34.12
-35.23
-33.51
-28.80
-21.56
-12.81
-3.74
4.58
11.39
16.34
19.34
20.59
20.36
19.00
16.87
14.31
11.67
9.27
7.37
6.14
5.58
5.54
5.76
5.95
5.83
5.21
3.98
2.19
-0.07
-2.57
-5.10
-7.48
-9.67
-11.79
-14.06
-16.72
-19.90
-23.52
-27.29
-30.67
-32.92
-33.21
-30.91
-25.75
-18.10
-8.88
0.66
9.31
16.23
20.96
23.46
23.90
22.50
19.62
15.73
11.44
7.42
4.18
2.01
0.88
0.63
1.03
1.83
2.81
3.68
4.14
3.95
3.03
1.50
-0.39
-2.40
-4.42
-6.57
-9.12
-12.34
-16.32
-20.86
-25.48
-29.44
-31.94
-32.21
-29.80
-24.70
-17.41
-8.83
-0.04
7.94
14.45
19.09
21.79
22.63
21.76
19.45
16.12
12.39
8.92
6.36
5.00
4.78
5.33
6.22
7.01
7.44
7.38
6.74
5.49
3.58
1.05
-1.93
-5.10
-8.20
-11.23
-14.36
-17.99
-22.37
-27.39
-32.41
-36.30
-37.80
-35.95
-30.51
-22.03
-11.71
-0.96
8.91
17.00
22.75
25.95
26.61
25.01
21.71
17.41
12.95
8.97
5.82
3.64
2.32
1.75
1.84
2.41
3.15
3.63
3.41
2.31
0.48
-1.72
-3.82
-5.60
-7.16
-8.97
-11.49
-15.06
-19.63
-24.70
-29.48
-32.96
-34.20
-32.48
-27.54
-19.70
-9.83
0.79
10.79
19.06
24.94
28.26
29.24
28.24
25.64
21.82
17.22
12.42
8.08
4.77
2.75
1.96
2.01
2.43
2.80
2.89
2.63
1.96
0.84
-0.75
-2.78
-5.21
-8.03
-11.36
-15.44
-20.37
-25.99
-31.66
-36.33
-38.82
-38.17
-34.04
-26.70
-16.98
-6.02
5.01
15.02
23.09
28.58
31.15
30.84
28.03
23.45
18.00
12.63
8.22
5.32
4.10
4.28
5.26
6.29
6.69
6.12
4.61
2.51
0.27
-1.84
-3.77
-5.82
-8.43
-12.08
-17.03
-23.13
-29.75
-35.81
-39.97
-41.04
-38.31
-31.78
-22.28
-11.14
0.14
10.21
18.07
23.19
25.43
24.93
22.15
17.71
12.44
7.17
2.68
-0.53
-2.32
-2.86
-2.60
-2.06
-1.73
-1.88
-2.58
-3.74
-5.22
-6.96
-9.07
-11.79
-15.43
-20.27
-26.41
-33.65
-41.40
-48.64
-54.03
-56.25
-54.32
-48.00
-37.89
-25.36
-12.11
0.23
10.52
18.21
23.19
25.57
25.51
23.18
18.98
13.65
8.28
4.06
1.76
1.51
2.69
4.23
5.09
4.71
3.15
0.86
-1.64
-4.06
-6.45
-9.19
-12.78
-17.66
-24.10
-32.03
-40.94
-49.73
-56.74
-60.10
-58.31
-50.83
-38.44
-23.05
-7.07
7.32
18.77
26.89
31.97
34.48
34.81
33.16
29.77
25.20
20.34
16.22
13.67
12.97
13.83
15.49
17.03
17.65
16.89
14.75
11.57
7.84
3.97
0.10
-3.85
-8.19
-13.27
-19.38
-26.65
-34.97
-43.73
-51.79
-57.46
-58.88
-54.65
-44.37
-29.05
-10.84
7.51
23.62
35.99
44.28
48.96
50.87
50.81
49.38
47.08
44.38
41.91
40.24
39.81
40.70
42.54
44.68
46.30
46.72
45.65
43.23
39.92
36.32
32.83
29.50
26.08
22.17
17.49
12.06
6.19
0.35
-5.05
-9.78
-13.89
-17.61
-21.29
-25.31
-30.08
-35.99
-43.30
-51.83
-60.63
-68.00
-71.68
-69.66
-60.95
-46.15
-27.38
-7.65
10.19
24.31
34.19
40.39
43.88
45.45
45.60
44.58
42.76
40.81
39.48
39.40
40.64
42.77
45.01
46.64
47.29
47.07
46.28
45.23
43.92
42.06
39.29
35.42
30.67
25.54
20.73
16.71
13.50
10.73
7.80
4.23
-0.15
-5.04
-9.96
-14.43
-18.22
-21.44
-24.48
-27.89
-32.25
-38.04
-45.36
-53.66
-61.61
-67.21
-68.34
-63.47
-52.43
-36.55
-18.31
-0.51
14.69
26.18
33.93
38.54
40.75
41.11
39.96
37.68
34.82
32.11
30.28
29.83
30.84
32.95
35.51
37.83
39.50
40.40
40.69
40.59
40.17
39.22
37.36
34.25
29.91
24.69
19.30
14.44
10.53
7.54
5.02
2.36
-0.93
-5.00
-9.55
-13.97
-17.64
-20.17
-21.69
-22.80
-24.41
-27.42
-32.37
-39.17
-47.02
-54.44
-59.61
-60.86
-57.05
-48.04
-34.76
-19.02
-3.07
11.07
22.04
29.32
33.17
34.30
33.52
31.55
29.00
26.35
24.08
22.61
22.22
22.92
24.44
26.28
27.96
29.17
29.85
30.11
30.13
29.99
29.58
28.69
27.02
24.42
20.98
17.07
13.21
9.93
7.47
5.68
4.05
1.94
-1.06
-4.95
-9.27
-13.41
-16.86
-19.53
-21.71
-23.92
-26.72
-30.51
-35.46
-41.47
-48.02
-54.11
-58.32
-59.10
-55.25
-46.45
-33.55
-18.35
-3.11
10.14
20.19
26.73
30.16
31.15
30.34
28.18
25.08
21.58
18.44
16.46
16.19
17.70
20.48
23.70
26.43
28.15
28.74
28.52
27.92
27.26
26.52
25.44
23.67
21.04
17.71
14.13
10.85
8.30
6.50
5.07
3.41
0.92
-2.63
-7.05
-11.80
-16.21
-19.78
-22.37
-24.25
-25.98
-28.17
-31.24
-35.38
-40.43
-45.91
-51.02
-54.65
-55.51
-52.54
-45.26
-34.15
-20.64
-6.69
5.75
15.46
22.05
25.93
27.82
28.31
27.77
26.39
24.43
22.32
20.59
19.69
19.83
20.85
22.34
23.77
24.73
25.04
24.73
23.98
22.97
21.75
20.20
18.17
15.53
12.32
8.80
5.34
2.30
-0.12
-1.97
-3.55
-5.30
-7.63
-10.73
-14.44
-18.35
-21.95
-24.87
-27.13
-29.11
-31.45
-34.67
-38.97
-44.01
-48.94
-52.60
-53.76
-51.45
-45.25
-35.42
-22.97
-9.46
3.39
14.10
21.78
26.22
27.80
27.14
24.98
22.04
18.93
16.23
14.37
13.57
13.75
14.58
15.62
16.48
17.00
17.22
17.23
17.10
16.78
16.18
15.21
13.81
11.96
9.61
6.69
3.14
-0.96
-5.35
-9.62
-13.40
-16.45
-18.85
-20.88
-22.90
-25.26
-28.12
-31.56
-35.51
-39.78
-43.92
-47.21
-48.68
-47.34
-42.55
-34.32
-23.48
-11.43
0.24
10.16
17.53
22.16
24.32
24.49
23.19
20.96
18.34
15.80
13.80
12.54
11.98
11.87
11.86
11.73
11.39
10.96
10.57
10.26
9.86
9.10
7.69
5.41
2.26
-1.55
-5.64
-9.51
-12.76
-15.19
-16.96
-18.56
-20.63
-23.70
-27.96
-33.10
-38.27
-42.32
-44.05
-42.54
-37.41
-28.99
-18.26
-6.60
4.43
13.60
20.18
24.10
25.76
25.74
24.55
22.50
19.75
16.51
13.15
10.21
8.19
7.35
7.58
8.41
9.27
9.64
9.24
8.03
6.12
3.67
0.85
-2.20
-5.29
-8.30
-11.15
-13.89
-16.67
-19.76
-23.45
-27.82
-32.64
-37.19
-40.40
-41.07
-38.38
-32.14
-22.98
-12.20
-1.29
8.44
16.14
21.48
24.43
25.16
23.91
21.06
17.16
12.92
9.10
6.31
4.89
4.76
5.56
6.74
7.70
7.96
7.28
5.69
3.45
0.97
-1.41
-3.59
-5.71
-8.12
-11.20
-15.16
-19.94
-25.14
-30.07
-33.86
-35.55
-34.37
-29.98
-22.64
-13.14
-2.68
7.44
16.15
22.75
26.92
28.60
28.01
25.47
21.50
16.73
11.92
7.74
4.72
3.05
2.60
2.93
3.45
3.63
3.17
2.07
0.56
-1.05
-2.58
-4.04
-5.66
-7.77
-10.70
-14.68
-19.66
-25.23
-30.58
-34.51
-35.73
-33.32
-27.05
-17.57
-6.24
5.24
15.38
23.16
28.17
30.41
30.12
27.58
23.18
17.51
11.41
5.86
1.80
-0.25
-0.36
0.83
2.42
3.57
3.89
3.46
2.67
1.86
1.08
0.04
-1.75
-4.70
-9.03
-14.57
-20.87
-27.17
-32.51
-35.72
-35.78
-32.12
-24.87
-14.97
-3.87
6.90
16.10
23.06
27.53
29.57
29.30
26.96
22.95
17.99
13.01
8.90
6.29
5.28
5.49
6.24
6.86
6.90
6.30
5.29
4.19
3.22
2.33
1.22
-0.57
-3.50
-7.86
-13.64
-20.37
-27.04
-32.22
-34.43
-32.59
-26.46
-16.85
-5.36
6.10
15.96
23.33
28.04
30.30
30.42
28.59
25.04
20.24
14.98
10.26
6.96
5.53
5.82
7.19
8.75
9.70
9.59
8.37
6.32
3.89
1.48
-0.70
-2.71
-4.89
-7.77
-11.87
-17.40
-24.02
-30.76
-36.15
-38.62
-37.04
-31.16
-21.76
-10.44
0.86
10.52
17.64
21.96
23.79
23.58
21.76
18.75
15.02
11.13
7.73
5.36
4.30
4.44
5.43
6.64
7.47
7.48
6.50
4.71
2.52
0.36
-1.50
-3.09
-4.76
-7.01
-10.20
-14.45
-19.53
-24.91
-29.82
-33.28
-34.30
-32.12
-26.42
-17.62
-6.87
4.27
14.24
22.01
27.15
29.78
30.15
28.52
25.09
20.22
14.63
9.38
5.60
4.00
4.57
6.63
9.09
10.95
11.66
11.22
10.02
8.48
6.83
5.08
3.09
0.70
-2.14
-5.53
-9.54
-14.28
-19.63
-25.08
-29.63
-32.03
-31.20
-26.73
-19.09
-9.56
0.26
8.97
15.72
20.25
22.66
23.13
21.78
18.74
14.28
9.06
3.96
-0.03
-2.16
-2.20
-0.55
1.96
4.30
5.62
5.55
4.18
2.03
-0.30
-2.35
-4.05
-5.70
-7.87
-11.16
-15.92
-22.06
-28.92
-35.36
-39.96
-41.43
-39.03
-32.84
-23.80
-13.40
-3.25
5.48
12.19
16.83
19.57
20.53
19.66
16.91
12.56
7.33
2.34
-1.29
-2.92
-2.59
-1.07
0.57
1.38
0.95
-0.57
-2.66
-4.80
-6.78
-8.79
-11.20
-14.45
-18.72
-24.01
-30.10
-36.62
-42.81
-47.54
-49.45
-47.32
-40.69
-30.24
-17.62
-5.02
5.71
13.65
18.88
22.05
23.84
24.51
23.89
21.84
18.54
14.70
11.32
9.22
8.70
9.38
10.46
11.10
10.77
9.36
7.16
4.58
1.98
-0.49
-2.84
-5.28
-8.17
-11.94
-16.95
-23.25
-30.34
-37.06
-41.79
-42.92
-39.47
-31.48
-20.10
-7.14
5.49
16.32
24.59
30.15
33.17
33.97
32.91
30.46
27.27
24.10
21.67
20.44
20.49
21.52
23.03
24.40
25.15
25.02
24.09
22.71
21.33
20.26
19.43
18.41
16.58
13.50
9.18
