1636013031.00
64.000000
-0.00
-0.00
-0.00
-0.00
-0.00
-0.00
-0.00
-0.00
-0.00
-0.00
0.00
0.01
0.01
-0.00
-0.03
-0.05
-0.05
0.00
0.13
0.36
0.66
1.01
1.37
1.72
2.06
2.40
2.79
3.24
3.80
4.42
5.06
5.66
6.20
6.68
7.15
7.68
8.31
9.14
10.09
11.04
11.88
12.56
13.14
13.76
14.65
15.96
17.91
20.32
22.90
25.38
27.58
29.57
31.68
34.32
37.81
42.54
48.15
54.10
59.83
64.97
69.58
74.14
79.34
85.71
93.76
103.00
112.62
121.73
129.77
136.75
143.30
150.75
157.77
166.64
177.95
191.79
206.97
220.57
228.25
225.36
208.53
176.87
132.76
80.05
23.07
-34.94
-92.44
-149.16
-205.23
-260.37
-313.74
-363.88
-409.83
-450.91
-486.49
-515.72
-537.20
-549.17
-549.89
-538.27
-514.07
-478.50
-433.65
-382.17
-326.68
-269.44
-212.17
-156.13
-102.35
-51.70
-5.15
36.41
72.34
102.35
126.59
145.57
159.98
170.56
177.90
182.42
184.40
184.07
181.70
177.64
172.31
166.10
159.37
152.37
145.23
138.03
130.82
123.63
116.53
109.59
102.89
96.48
90.38
84.61
79.19
74.13
69.43
65.11
61.16
57.61
54.43
51.62
49.18
47.12
45.42
44.10
43.13
42.50
42.16
42.04
42.02
41.98
41.74
41.13
39.98
38.11
35.42
31.86
27.44
22.19
16.28
9.91
3.31
-3.23
-9.46
-15.12
-20.00
-23.96
-26.91
-28.82
-29.72
-29.69
-28.84
-27.30
-25.23
-22.74
-19.96
-16.99
-13.88
-10.73
-7.58
-4.47
-1.41
1.59
4.53
7.41
10.24
13.06
15.80
18.44
20.98
23.41
25.76
28.07
30.42
32.91
35.66
38.66
41.95
45.58
49.62
54.11
59.10
64.61
70.65
77.26
84.21
91.32
98.48
105.57
112.55
119.37
126.07
132.71
139.39
145.92
152.19
158.08
163.44
168.04
171.51
173.30
172.64
170.58
167.33
162.86
157.06
149.79
140.95
130.49
118.51
105.22
90.98
75.96
60.47
44.94
29.81
15.54
2.56
-8.78
-18.16
-25.36
-30.52
-33.77
-35.32
-35.42
-34.35
-32.38
-29.78
-26.77
-23.53
-20.33
-17.35
-14.70
-12.45
-10.58
-9.06
-7.79
-6.65
-5.51
-4.28
-2.90
-1.25
0.72
3.06
5.78
8.86
12.28
15.97
19.85
23.85
27.86
31.82
35.66
39.32
42.73
45.85
48.60
50.95
52.86
54.31
55.29
55.80
55.85
55.48
54.72
53.57
52.04
50.11
47.76
44.95
41.70
37.99
33.85
29.33
24.48
19.35
13.97
8.38
2.62
-3.27
-9.20
-15.11
-20.90
-26.48
-31.80
-36.82
-41.53
-45.89
-49.87
-53.38
-56.31
-58.58
-60.17
-61.15
-61.70
-62.07
-62.50
-63.14
-64.02
-65.08
-66.19
-67.30
-68.51
-70.07
-72.33
-75.61
-80.06
-85.62
-91.98
-98.78
-105.78
-112.94
-120.55
-129.03
-138.81
-150.10
-162.74
-176.31
-190.23
-203.93
-217.14
-229.86
-242.45
-255.64
-270.35
-287.38
-306.82
-327.58
-347.22
-362.40
-369.93
-367.81
-356.02
-336.43
-312.11
-286.29
-261.52
-239.38
-220.58
-205.21
-192.90
-182.84
-173.71
-163.91
-151.79
-136.24
-116.88
-94.10
-68.91
-42.72
-17.07
6.44
26.29
41.22
50.52
54.41
54.05
51.34
48.32
46.48
46.22
46.84
46.88
44.78
39.39
30.16
17.17
1.02
-17.14
-35.61
-52.32
-65.30
-73.50
-77.35
-78.89
-81.19
-87.17
-98.40
-114.20
-131.70
-146.60
-154.46
-152.00
-138.12
-113.97
-82.69
-48.57
-15.98
11.37
31.35
43.77
50.73
55.99
63.43
75.07
89.75
103.22
110.10
106.63
92.77
72.41
51.60
35.85
27.97
27.62
32.47
39.88
48.05
56.10
63.48
69.39
72.74
72.65
68.92
62.15
53.39
43.89
34.47
25.35
16.21
6.52
-3.94
-14.60
-23.98
-30.04
-30.92
-25.85
-15.49
-1.80
12.70
25.81
36.37
44.29
50.19
54.80
58.56
61.38
62.92
62.85
61.15
58.20
54.64
51.16
48.30
46.21
44.77
43.65
42.44
40.84
38.73
36.10
33.04
29.60
25.73
21.34
16.24
10.23
3.12
-5.18
-14.42
-23.96
-32.65
-39.02
-41.65
-39.61
-32.88
-22.36
-9.64
3.59
16.00
26.88
36.11
43.76
49.87
54.29
56.71
56.98
55.28
52.17
48.48
45.01
42.19
40.08
38.33
36.47
34.11
31.10
27.57
23.81
20.07
16.51
13.05
9.47
5.36
0.25
-6.29
-14.48
-24.10
-34.38
-43.97
-51.19
-54.49
-52.85
-46.18
-35.31
-21.69
-7.03
7.23
20.11
31.10
40.12
47.26
52.66
56.46
58.84
60.01
60.18
59.52
58.14
56.08
53.49
50.56
47.64
45.06
43.01
41.37
39.73
37.44
33.88
28.76
22.21
14.80
7.33
0.49
-5.37
-10.50
-15.66
-21.89
-30.04
-40.35
-52.09
-63.54
-72.30
-75.96
-72.76
-62.26
-45.48
-24.66
-2.58
18.21
35.99
50.06
60.62
68.23
73.45
76.54
77.55
76.44
73.42
68.99
63.86
58.67
53.74
49.05
44.27
39.06
33.23
26.91
20.47
14.44
9.50
6.45
6.02
8.57
13.58
19.49
23.91
24.44
19.65
9.67
-3.85
-18.54
-32.34
-44.19
-54.05
-62.34
-69.13
-73.70
-74.73
-70.94
-61.85
-48.17
-31.61
-14.31
1.80
15.64
27.03
36.44
44.49
51.53
57.52
62.18
65.34
67.13
67.98
68.40
68.61
68.40
67.17
64.28
59.48
53.21
46.49
40.54
36.25
33.81
32.63
31.61
29.69
26.21
21.07
14.66
7.56
0.36
-6.60
-13.21
-19.64
-26.28
-33.65
-42.13
-51.73
-61.82
-71.10
-77.86
-80.46
-77.91
-70.17
-58.27
-43.90
-28.86
-14.58
-1.88
9.08
18.47
26.62
33.70
39.79
44.82
48.74
51.47
52.98
53.31
52.60
51.07
49.06
46.99
45.23
44.05
43.48
43.32
43.13
42.37
40.44
36.95
31.80
25.29
18.00
10.63
3.77
-2.28
-7.56
-12.41
-17.25
-22.48
-28.19
-34.16
-39.85
-44.55
-47.59
-48.50
-47.09
-43.46
-37.94
-30.97
-23.01
-14.56
-6.01
2.29
9.99
16.77
22.29
26.25
28.52
29.21
28.69
27.44
25.91
24.36
22.88
21.47
20.20
19.27
18.89
19.11
19.69
20.10
19.73
18.10
15.05
10.77
5.72
0.41
-4.78
-9.65
-14.28
-18.87
-23.71
-29.04
-35.07
-41.80
-48.96
-55.89
-61.48
-64.45
-63.68
-58.69
-49.79
-38.08
-25.06
-12.13
-0.32
9.91
18.36
25.06
29.97
33.12
34.60
34.65
33.68
32.09
30.21
28.22
26.27
24.43
22.78
21.46
20.51
19.97
19.64
19.24
18.39
16.81
14.32
10.98
7.06
2.90
-1.24
-5.21
-9.09
-13.16
-17.83
-23.50
-30.37
-38.19
-46.17
-53.00
-57.13
-57.28
-52.86
-44.27
-32.76
-20.03
-7.76
2.90
11.40
17.77
22.32
25.37
27.19
27.97
27.87
27.10
25.85
24.32
22.65
20.98
19.37
17.94
16.71
15.69
14.83
13.95
12.85
11.30
9.11
6.18
2.66
-1.20
-5.03
-8.59
-11.84
-15.08
-18.87
-23.76
-30.03
-37.31
-44.58
-50.37
-53.08
-51.63
-45.76
-36.16
-24.24
-11.73
-0.16
9.50
16.85
22.00
25.25
26.99
27.54
27.22
26.27
24.92
23.34
21.65
19.93
18.31
16.94
15.95
15.39
15.12
14.84
14.13
12.70
10.42
7.45
4.05
0.52
-2.97
-6.46
-10.06
-14.02
-18.61
-24.05
-30.40
-37.38
-44.25
-49.82
-52.78
-51.99
-46.99
-38.23
-26.96
-14.85
-3.49
6.04
13.32
18.47
21.88
23.99
25.10
25.46
25.24
24.64
23.83
22.96
22.03
21.00
19.85
18.63
17.42
16.33
15.35
14.32
12.99
11.14
8.63
5.50
1.95
-1.79
-5.52
-9.15
-12.79
-16.71
-21.26
-26.80
-33.42
-40.73
-47.77
-53.11
-55.27
-53.17
-46.61
-36.40
-24.11
-11.58
-0.32
8.84
15.81
20.93
24.63
27.22
28.79
29.33
28.89
27.73
26.17
24.56
23.06
21.61
20.07
18.33
16.53
14.97
14.00
13.73
13.89
13.84
12.90
10.58
6.87
2.24
-2.60
-7.02
-10.68
-13.61
-16.19
-18.97
-22.53
-27.27
-33.29
-40.13
-46.75
-51.75
-53.68
-51.65
-45.57
-36.29
-25.23
-13.93
-3.61
5.08
11.98
17.27
21.18
23.87
25.45
26.02
25.79
25.07
24.23
23.57
23.15
22.87
22.47
21.69
20.45
18.93
17.47
16.40
15.86
15.68
15.36
14.31
12.11
8.67
4.33
-0.29
-4.61
-8.28
-11.39
-14.35
-17.68
-21.88
-27.20
-33.55
-40.43
-46.97
-51.98
-54.20
-52.72
-47.26
-38.37
-27.30
-15.58
-4.61
4.76
12.19
17.75
21.68
24.24
25.65
26.22
26.32
26.31
26.41
26.62
26.73
26.45
25.63
24.35
22.90
21.63
20.73
20.17
19.73
19.00
17.65
15.48
12.48
8.83
4.84
0.86
-2.83
-6.16
-9.30
-12.64
-16.63
-21.62
-27.61
-34.09
-40.13
-44.48
-46.01
-43.99
-38.41
-30.03
-20.15
-10.27
-1.63
5.07
9.75
12.74
14.49
15.31
15.30
14.47
12.89
10.81
8.61
6.70
5.37
4.72
4.68
5.09
5.75
6.41
6.78
6.58
5.56
3.64
0.93
-2.32
-5.87
-9.51
-13.17
-16.89
-20.78
-25.05
-29.88
-35.33
-41.11
-46.45
-50.13
-50.85
-47.74
-40.73
-30.73
-19.29
-8.05
1.79
9.79
16.04
20.85
24.40
26.62
27.29
26.33
23.95
20.70
17.28
14.35
12.28
11.12
10.62
10.34
9.86
8.90
7.38
5.46
3.32
1.16
-1.03
-3.43
-6.40
-10.31
-15.48
-22.02
-29.67
-37.80
-45.33
-50.92
-53.33
-51.76
-46.13
-37.20
-26.33
-15.08
-4.76
3.86
10.60
15.74
19.63
22.59
24.69
25.88
26.07
25.29
23.71
21.70
19.59
17.60
15.72
13.72
11.28
8.25
4.72
1.04
-2.35
-5.18
-7.46
-9.48
-11.65
-14.37
-17.89
-22.33
-27.72
-33.85
-40.20
-45.84
-49.54
-50.13
-46.90
-39.89
-29.89
-18.22
-6.26
4.91
14.60
22.49
28.54
32.82
35.45
36.66
36.76
36.15
35.14
33.97
32.76
31.49
30.15
28.67
26.98
24.90
22.35
19.22
15.57
11.54
7.30
2.96
-1.42
-5.78
-10.04
-14.04
-17.63
-20.83
-23.95
-27.53
-32.10
-37.77
-43.98
-49.52
-52.83
-52.54
-47.91
-39.17
-27.33
-13.90
-0.37
12.12
22.96
31.97
39.24
44.92
49.16
52.06
53.67
54.08
53.40
51.83
49.58
46.95
44.23
41.63
39.28
37.23
35.43
33.68
31.70
29.17
25.82
21.51
16.36
10.71
5.01
-0.36
-5.21
-9.58
-13.79
-18.28
-23.51
-29.80
-37.05
-44.64
-51.40
-55.87
-56.69
-53.14
-45.40
-34.52
-22.06
-9.55
1.92
11.89
20.37
27.58
33.63
38.57
42.32
44.88
46.36
46.92
46.77
46.03
44.77
43.05
41.02
38.87
36.87
35.27
34.13
33.30
32.37
30.85
28.23
24.26
18.97
12.75
6.23
0.03
-5.37
-9.86
-13.65
-17.21
-21.12
-25.86
-31.63
-38.22
-44.92
-50.57
-53.80
-53.44
-48.94
-40.61
-29.60
-17.46
-5.71
4.67
13.28
20.18
25.64
29.89
33.05
35.21
36.51
37.08
37.10
36.73
36.10
35.29
34.36
33.34
32.21
30.97
29.65
28.36
27.19
26.14
25.06
23.70
21.76
19.01
15.45
11.32
6.95
2.72
-1.15
-4.65
-7.99
-11.52
-15.61
-20.56
-26.47
-33.14
-40.03
-46.19
-50.49
-51.80
-49.47
-43.50
-34.68
-24.32
-13.82
-4.31
3.65
10.04
15.16
19.34
22.83
25.72
27.96
29.56
30.52
30.95
30.97
30.76
30.46
30.17
29.89
29.54
29.00
28.11
26.78
25.05
23.06
20.99
18.98
16.98
14.89
12.57
9.92
6.96
3.74
0.39
-2.98
-6.30
-9.48
-12.47
-15.33
-18.26
-21.59
-25.68
-30.71
-36.42
-42.06
-46.46
-48.38
-46.95
-41.93
-33.88
-23.95
-13.52
-3.77
4.61
11.41
16.81
21.05
24.28
26.51
27.73
28.05
27.71
27.06
26.41
25.96
25.73
25.64
25.60
25.51
25.35
25.12
24.83
24.46
23.96
23.29
22.32
20.92
18.91
16.22
12.91
9.19
5.39
1.87
-1.20
-3.88
-6.42
-9.24
-12.75
-17.16
-22.42
-28.21
-33.95
-38.88
-42.17
-43.05
-41.04
-36.11
-28.82
-20.19
-11.38
-3.46
2.98
7.79
11.17
13.44
14.78
15.30
15.05
14.21
13.09
12.11
11.60
11.68
12.19
12.81
13.21
13.17
12.73
12.06
11.39
10.81
10.21
9.36
8.02
6.07
3.64
1.04
-1.37
-3.30
-4.74
-5.96
-7.42
-9.64
-12.94
-17.32
-22.33
-27.13
-30.74
-32.21
-31.01
-27.06
-20.87
-13.35
-5.57
1.52
7.31
11.58
14.49
16.35
17.47
18.02
18.10
17.78
17.15
16.46
15.92
15.62
15.49
15.33
14.90
14.12
13.06
11.92
10.86
9.90
8.87
7.51
5.57
2.93
-0.34
-4.03
-7.86
-11.55
-14.97
-18.12
-21.27
-24.80
-29.06
-34.10
-39.48
-44.23
-47.14
-47.19
-43.95
-37.77
-29.63
-20.75
-12.20
-4.62
1.69
6.73
10.57
13.33
15.16
16.32
17.11
17.83
18.63
19.50
20.34
20.92
21.06
20.70
19.91
18.87
17.83
16.95
16.30
15.78
15.22
14.42
13.29
11.84
10.22
8.68
7.49
6.88
6.89
7.33
7.75
7.64
6.62
4.77
2.73
1.62
2.79
7.32
15.67
27.54
42.01
57.82
73.73
88.76
102.20
113.59
122.58
128.93
132.56
133.62
132.42
129.37
124.70
118.37
110.12
99.76
87.34
73.39
58.86
44.94
32.75
23.14
16.49
12.69
11.16
11.01
11.22
10.86
9.34
6.55
2.92
-0.73
-3.49
-4.68
-4.22
-2.67
-1.11
-0.69
-2.10
-5.42
-10.18
-15.77
-21.84
-28.37
-35.38
-42.51
-48.80
-52.89
-53.62
-50.59
-44.37
-36.28
-27.71
-19.67
-12.55
-6.45
-1.52
1.79
2.90
1.38
-2.66
-8.60
-15.45
-22.20
-28.11
-32.76
-35.96
-37.67
-38.06
-37.51
-36.61
-36.03
-36.22
-37.20
-38.53
-39.48
-39.43
-38.20
-36.26
-34.48
-33.83
-34.97
-38.08
-42.88
-48.85
-55.36
-61.95
-68.32
-74.30
-79.82
-84.81
-89.07
-92.18
-93.46
-92.00
-86.85
-77.44
-63.85
-47.12
-29.08
-11.97
2.14
11.73
16.14
15.51
10.51
2.18
-8.24
-19.30
-29.37
-36.81
-40.41
-39.72
-35.16
-27.80
-18.78
-8.82
1.98
13.75
26.30
38.58
48.71
54.61
54.89
49.36
39.11
26.01
11.90
-1.88
-14.55
-25.68
-34.83
-41.52
-45.31
-45.95
-43.48
-38.07
-29.84
-19.00
-6.04
8.02
21.57
32.81
40.37
43.78
43.61
41.10
37.59
33.88
30.11
25.73
19.82
11.42
-0.17
-15.17
-33.05
-52.37
-70.97
-86.25
-95.91
-98.60
-94.44
-84.92
-72.56
-59.97
-49.23
-41.35
-36.21
-32.98
-30.46
-27.68
-24.02
-19.38
-14.05
-8.46
-3.01
2.15
7.06
11.88
16.73
21.51
25.93
29.58
32.07
33.12
32.61
30.60
27.41
23.73
20.71
19.66
21.58
26.40
32.68
38.03
40.04
37.42
30.65
21.73
13.13
6.68
2.83
0.89
-0.27
-1.40
-2.44
-2.84
-2.07
-0.16
2.30
4.43
5.54
5.41
4.33
2.91
1.72
1.00
0.61
-0.01
-1.47
-4.09
-7.76
-11.91
-15.68
-18.43
-20.01
-20.78
-21.49
-22.85
-25.30
-28.87
-33.31
-38.25
-43.28
-47.90
-51.45
-53.16
-52.38
-48.87
-42.96
-35.45
-27.35
-19.54
-12.53
-6.49
-1.42
2.69
5.77
7.72
8.61
8.63
8.11
7.42
6.82
6.38
6.04
5.68
5.20
4.63
4.13
3.84
3.87
4.15
4.39
4.23
3.37
1.62
-0.90
-3.91
-7.08
-10.11
-12.87
-15.46
-18.12
-21.26
-25.29
-30.40
-36.48
-42.88
-48.50
-52.10
-52.62
-49.64
-43.51
-35.24
-26.12
-17.27
-9.38
-2.64
3.04
7.87
11.92
15.19
17.71
19.58
21.01
22.20
23.24
23.99
24.23
23.74
22.48
20.65
18.63
16.81
15.47
14.65
14.13
13.57
12.52
10.63
7.63
3.53
-1.37
-6.52
-11.28
-15.21
-18.24
-20.79
-23.52
-27.06
-31.75
-37.41
-43.38
-48.67
-52.19
-52.96
-50.46
-44.66
-36.24
-26.31
-16.20
-7.05
0.56
6.58
11.35
15.37
18.94
22.18
24.98
27.19
28.69
29.45
29.57
29.21
28.57
27.81
26.99
26.09
25.04
23.76
22.36
21.02
19.92
19.10
18.39
17.37
15.70
13.17
9.90
6.23
2.54
-0.93
-4.14
-7.29
-10.59
-14.18
-18.10
-22.34
-26.96
-32.10
-37.75
-43.60
-48.85
-52.26
-52.58
-49.01
-41.61
-31.31
-19.67
-8.34
1.48
9.25
15.06
19.35
22.61
25.13
27.08
28.53
29.52
30.14
30.45
30.54
30.37
29.97
29.37
28.67
28.05
27.70
27.72
28.11
28.70
29.17
29.10
28.20
26.28
23.41
19.90
16.09
12.34
8.80
5.47
2.20
-1.15
-4.67
-8.32
-11.96
-15.53
-19.10
-22.93
-27.43
-32.84
-39.07
-45.50
-50.99
-54.23
-54.09
-50.12
-42.63
-32.70
-21.73
-11.10
-1.75
5.87
11.75
16.12
19.29
21.53
23.07
24.12
24.92
25.63
26.33
27.00
27.52
27.83
27.97
28.07
28.35
28.92
29.78
30.73
31.42
31.53
30.81
29.18
26.74
23.68
20.28
16.70
13.09
9.47
5.82
2.14
-1.53
-5.14
-8.74
-12.37
-16.21
-20.44
-25.24
-30.68
-36.69
-42.91
-48.64
-52.87
-54.47
-52.62
-47.08
-38.40
-27.80
-16.74
-6.47
2.30
9.41
15.15
19.77
23.46
26.19
27.86
28.45
28.17
27.44
26.76
26.57
27.00
27.90
28.88
29.55
29.63
29.13
28.19
26.99
25.60
23.91
21.77
19.08
15.89
12.40
8.82
5.28
1.82
-1.65
-5.13
-8.57
-11.84
-14.81
-17.52
-20.17
-23.15
-26.87
-31.58
-37.07
-42.65
-47.17
-49.37
-48.25
-43.45
-35.46
-25.48
-14.99
-5.37
2.57
8.56
12.85
15.87
17.97
19.35
20.09
20.23
19.93
19.46
19.13
19.22
19.83
20.87
21.99
22.77
22.88
22.20
20.92
19.38
17.87
16.46
14.91
12.91
10.18
6.75
2.88
-1.03
-4.68
-7.97
-11.02
-14.07
-17.29
-20.88
-24.97
-29.72
-35.07
-40.73
-45.92
-49.55
-50.49
-47.94
-41.89
-33.06
-22.74
-12.35
-2.99
4.76
10.77
15.17
18.23
20.10
20.99
21.13
20.78
20.27
19.83
19.66
19.81
20.29
20.96
21.66
22.16
22.28
21.94
21.18
20.10
18.80
17.30
15.51
13.27
10.43
6.93
2.84
-1.60
-6.14
-10.53
-14.63
-18.47
-22.27
-26.33
-31.05
-36.65
-43.01
-49.64
-55.58
-59.64
-60.67
-58.06
-51.86
-42.86
-32.33
-21.57
-11.57
-2.86
4.52
10.76
16.03
20.44
23.95
26.51
28.16
29.01
29.27
29.20
28.99
28.77
28.60
28.45
28.26
27.94
27.42
26.66
25.64
24.32
22.64
20.44
17.52
13.74
9.13
3.92
-1.49
-6.59
-11.02
-14.60
-17.46
-20.02
-22.88
-26.63
-31.64
-37.79
-44.37
-50.19
-53.84
-54.14
-50.62
-43.59
-34.07
-23.46
-13.03
-3.70
4.14
10.52
15.69
19.94
23.48
26.40
28.73
30.45
31.55
32.11
32.23
32.04
31.69
31.27
30.83
30.34
29.76
29.08
28.24
27.20
25.83
24.00
21.58
18.46
14.69
10.39
5.85
1.41
-2.66
-6.15
-9.08
-11.62
-14.05
-16.72
-19.94
-23.93
-28.75
-34.25
-39.96
-45.11
-48.77
-49.96
-48.05
-42.98
-35.28
-26.00
-16.31
-7.13
0.96
7.83
13.57
18.30
22.11
25.08
27.25
28.74
29.74
30.40
30.81
31.06
31.18
31.29
31.47
31.79
32.15
32.39
32.30
31.68
30.50
28.90
27.08
25.25
23.40
21.32
18.72
15.33
11.16
6.51
1.85
-2.43
-6.11
-9.31
-12.30
-15.44
-19.05
-23.41
-28.69
-34.94
-41.88
-48.77
-54.41
-57.44
-56.81
-52.07
-43.74
-33.05
-21.57
-10.74
-1.48
5.95
11.75
16.33
20.06
23.11
25.46
27.06
27.98
28.44
28.75
29.23
30.02
31.07
32.13
32.90
33.17
32.90
32.15
31.05
29.62
27.87
25.75
23.22
20.31
17.07
13.58
9.91
6.18
2.49
-0.99
-4.15
-6.97
-9.59
-12.22
-15.14
-18.62
-22.84
-27.75
-33.03
-37.90
-41.29
-42.09
-39.55
-33.63
-25.05
-15.11
-5.20
3.63
10.85
16.43
20.57
23.51
25.41
26.39
26.62
26.32
25.79
25.28
24.99
25.00
25.32
25.85
26.41
26.77
26.69
26.06
24.90
23.38
21.66
19.85
17.91
15.70
13.07
9.98
6.53
2.94
-0.49
-3.58
-6.29
-8.74
-11.16
-13.88
-17.21
-21.38
-26.51
-32.42
-38.64
-44.30
-48.33
-49.69
-47.75
-42.48
-34.53
-25.03
-15.17
-5.91
2.25
9.18
14.96
19.68
23.40
26.15
28.09
29.36
30.15
30.63
30.85
30.82
30.57
30.19
29.74
29.30
28.86
28.34
27.68
26.80
25.71
24.39
22.83
21.02
18.95
16.58
13.86
10.66
6.94
2.75
-1.64
-5.85
-9.55
-12.62
-15.27
-17.97
-21.26
-25.55
-30.91
-37.00
-43.02
-47.87
-50.36
-49.55
-45.08
-37.33
-27.35
-16.57
-6.32
2.49
9.50
14.82
18.80
21.80
24.04
25.66
26.66
27.00
26.68
25.77
24.47
23.10
21.97
21.38
21.43
22.06
22.97
23.83
24.30
24.19
23.47
22.29
20.75
18.89
16.65
13.92
10.67
7.04
3.31
-0.28
-3.57
-6.61
-9.59
-12.70
-16.14
-20.03
-24.54
-29.74
-35.49
-41.30
-46.20
-49.00
-48.68
-44.77
-37.66
-28.42
-18.43
-8.96
-0.79
5.81
10.91
14.74
17.42
19.12
19.99
20.31
20.41
20.48
20.61
20.73
20.73
20.60
20.43
20.33
20.33
20.40
20.41
20.31
20.08
19.79
19.38
18.65
17.32
15.06
11.79
7.67
3.14
-1.28
-5.15
-8.26
-10.70
-12.79
-14.96
-17.66
-21.22
-25.77
-31.14
-36.75
-41.65
-44.69
-44.84
-41.52
-34.91
-25.88
-15.81
-6.14
2.02
8.19
12.44
15.26
17.21
18.70
19.96
20.97
21.65
21.94
21.91
21.72
21.57
21.57
21.71
21.86
21.89
21.71
21.34
20.90
20.40
19.78
18.82
17.32
15.10
12.17
8.63
4.68
0.52
-3.67
-7.76
-11.73
-15.69
-19.86
-24.57
-30.07
-36.38
-43.10
-49.44
-54.35
-56.80
-56.08
-52.06
-45.13
-36.15
-26.18
-16.20
-6.98
1.02
7.64
12.92
16.99
20.03
22.19
23.63
24.52
25.09
25.57
26.13
26.84
27.57
28.12
28.33
28.08
27.46
26.61
25.63
24.52
23.16
21.33
18.87
15.74
12.02
7.98
3.88
-0.01
-3.59
-6.91
-10.14
-13.53
-17.29
-21.65
-26.67
-32.26
-38.02
-43.26
-47.06
-48.50
-47.04
-42.64
-35.91
-27.74
-19.11
-10.73
-2.98
4.01
10.21
15.54
19.89
23.19
25.54
27.14
28.24
29.05
29.67
30.16
30.50
30.67
30.61
30.29
29.74
29.01
28.22
27.48
26.77
25.92
24.67
22.71
19.85
16.10
11.76
7.25
2.96
-0.91
-4.39
-7.77
-11.39
-15.56
-20.47
-26.13
-32.32
-38.54
-44.03
-47.79
-48.88
-46.75
-41.50
-33.86
-25.01
-16.13
-8.06
-1.17
4.61
9.50
13.74
17.42
20.59
23.23
25.35
27.00
28.24
29.14
29.74
30.05
29.97
29.43
28.37
26.84
25.03
23.16
21.41
19.76
18.02
15.86
13.01
9.42
5.25
0.89
-3.26
-6.89
-9.97
-12.76
-15.74
-19.40
-24.09
-29.84
-36.24
-42.50
-47.56
-50.35
-50.14
-46.71
-40.46
-32.25
-23.12
-13.98
-5.43
2.23
8.96
14.74
19.53
23.28
26.01
27.86
29.05
29.89
30.59
31.22
31.74
32.02
31.92
31.44
30.65
29.70
28.70
27.65
26.44
24.87
22.66
19.64
15.77
11.21
6.29
1.41
-3.12
-7.18
-10.92
-14.67
-18.82
-23.67
-29.38
-35.85
-42.72
-49.30
-54.69
-57.84
-57.93
-54.62
-48.28
-39.88
-30.68
-21.81
-13.93
-7.16
-1.30
4.00
8.91
13.48
17.61
21.23
24.31
26.85
28.90
30.47
31.58
32.26
32.47
32.25
31.64
30.75
29.74
28.77
27.86
26.88
25.52
23.44
20.42
16.48
11.94
7.25
2.90
-0.82
-3.88
-6.53
-9.20
-12.35
-16.35
-21.36
-27.25
-33.53
-39.37
-43.74
-45.72
-44.74
-40.83
-34.61
-27.02
-19.05
-11.48
-4.71
1.13
6.11
10.37
14.07
17.32
20.27
22.94
25.31
27.24
28.63
29.47
29.83
29.84
29.66
29.38
29.03
28.59
28.03
27.31
26.45
25.44
24.27
22.85
21.01
18.58
15.51
11.92
8.10
4.43
1.18
-1.58
-4.05
-6.53
-9.37
-12.81
-16.99
-21.92
-27.37
-32.87
-37.64
-40.71
-41.27
-38.93
-33.94
-27.12
-19.58
-12.28
-5.82
-0.35
4.22
8.08
11.32
13.97
16.02
17.57
18.78
19.84
20.86
21.85
22.72
23.31
23.50
23.28
22.78
22.20
21.73
21.47
21.31
20.97
20.08
18.30
15.48
11.77
7.56
3.37
-0.40
-3.58
-6.26
-8.80
-11.59
-14.96
-19.13
-24.13
-29.75
-35.52
-40.72
-44.43
-45.82
-44.32
-39.96
-33.29
-25.29
-17.04
-9.40
-2.79
2.77
7.47
11.58
15.21
18.35
20.94
22.95
24.41
25.42
26.12
26.59
26.89
27.00
26.89
26.50
25.77
24.74
23.51
22.15
20.66
18.87
16.49
13.24
9.03
4.09
-1.08
-5.93
-10.06
-13.41
-16.22
-18.97
-22.17
-26.18
-31.14
-36.87
-42.82
-48.13
-51.81
-52.99
-51.24
-46.68
-39.94
-31.95
-23.63
-15.65
-8.41
-2.00
3.62
8.49
12.66
16.15
19.03
21.40
23.43
25.21
26.80
28.10
28.98
29.26
28.84
27.75
26.12
24.17
22.13
20.17
18.30
16.41
14.27
11.65
8.46
4.83
1.11
-2.34
-5.28
-7.77
-10.10
-12.70
-15.93
-20.02
-24.99
-30.62
-36.44
-41.71
-45.52
-46.99
-45.61
-41.37
-34.92
-27.27
-19.46
-12.22
-5.83
-0.20
4.88
9.52
13.73
17.34
20.20
22.26
23.65
24.62
25.42
26.25
27.08
27.78
28.11
27.91
27.18
26.07
24.84
23.66
22.54
21.29
19.63
17.34
14.36
10.83
6.97
3.05
-0.80
-4.51
-8.09
-11.57
-14.95
-18.31
-21.78
-25.57
-29.80
-34.33
-38.64
-41.93
-43.28
-42.10
-38.25
-32.24
-24.97
-17.39
-10.23
-3.88
1.56
6.16
9.95
12.92
15.04
16.33
16.90
16.97
16.79
16.54
16.33
16.18
16.02
15.76
15.32
14.72
13.97
13.18
12.40
11.62
10.70
9.46
7.71
5.43
2.74
-0.11
-2.85
-5.31
-7.50
-9.60
-11.91
-14.74
-18.30
-22.63
-27.50
-32.31
-36.21
-38.27
-37.83
-34.72
-29.39
-22.72
-15.71
-9.15
-3.41
1.50
5.76
9.54
12.86
15.60
17.66
18.99
19.71
19.98
19.97
19.76
19.40
18.87
18.21
17.45
16.63
15.75
14.74
13.47
11.84
9.82
7.43
4.78
1.93
-1.01
-3.96
-6.81
-9.55
-12.27
-15.25
-18.84
-23.34
-28.74
-34.50
-39.71
-43.24
-44.23
-42.27
-37.67
-31.21
-23.91
-16.67
-10.02
-4.17
0.95
5.45
9.39
12.75
15.49
17.63
19.26
20.53
21.54
22.26
22.62
22.53
21.94
21.02
19.97
19.03
18.32
17.75
17.06
15.94
14.11
11.46
8.09
4.27
0.30
-3.50
-7.00
-10.20
-13.31
-16.67
-20.63
-25.40
-30.89
-36.55
-41.51
-44.77
-45.56
-43.51
-38.90
-32.40
-24.90
-17.26
-10.07
-3.66
1.85
6.48
10.27
13.32
15.76
17.71
19.32
20.74
22.04
23.22
24.21
24.89
25.12
24.80
23.95
22.67
21.17
19.57
17.92
16.13
13.98
11.28
7.97
4.20
0.23
-3.66
-7.26
-10.52
-13.55
-16.57
-19.86
-23.65
-28.02
-32.72
-37.16
-40.48
-41.78
-40.47
-36.44
-30.11
-22.26
-13.77
-5.39
2.36
9.16
14.86
19.42
22.88
25.36
27.01
27.99
28.44
28.46
28.16
27.66
27.08
26.52
26.04
25.71
25.57
25.64
25.92
26.29
26.54
26.38
25.57
24.03
21.90
19.53
17.27
15.39
13.82
12.26
10.23
7.20
2.80
-3.03
-10.10
-17.83
-25.37
-31.76
-36.07
-37.67
-36.48
-32.89
-27.65
-21.63
-15.53
-9.83
-4.83
-0.69
2.45
4.55
5.73
6.25
6.48
6.72
7.13
7.63
8.03
8.08
7.62
6.68
5.43
4.12
2.92
1.85
0.78
-0.59
-2.44
-4.88
-7.83
-11.07
-14.39
-17.56
-20.47
-23.07
-25.40
-27.59
-29.85
-32.45
-35.58
-39.15
-42.71
-45.47
-46.54
-45.23
-41.32
-35.16
-27.53
-19.39
-11.55
-4.54
1.43
6.38
10.42
13.65
16.21
18.18
19.76
21.09
22.30
23.36
24.13
24.39
24.01
23.02
21.64
20.20
19.04
18.24
17.64
16.91
15.68
13.72
11.06
7.90
4.52
1.14
-2.19
-5.49
-8.90
-12.51
-16.47
-20.86
-25.67
-30.66
-35.35
-38.97
-40.70
-39.97
-36.70
-31.35
-24.78
-17.89
-11.34
-5.42
-0.04
4.94
9.60
13.87
17.54
20.40
22.37
23.53
24.09
24.27
24.22
24.02
23.68
23.22
22.69
22.12
21.56
20.92
20.08
18.84
17.09
14.75
11.89
8.63
5.19
1.80
-1.36
-4.25
-6.91
-9.57
-12.54
-16.18
-20.67
-25.96
-31.66
-37.07
-41.32
-43.56
-43.23
-40.24
-34.97
-28.14
-20.59
-13.02
-5.90
0.52
6.10
10.73
14.34
16.95
18.72
19.91
20.82
21.68
22.55
23.39
24.04
24.34
24.22
23.68
22.90
22.11
21.55
21.23
20.99
20.40
19.04
16.66
13.38
9.60
5.86
2.59
-0.10
-2.38
-4.60
-7.18
-10.35
-14.27
-18.89
-23.99
-29.11
-33.55
-36.46
-37.05
-34.91
-30.21
-23.66
-16.36
-9.33
-3.28
1.55
5.31
8.26
10.65
12.57
14.08
15.33
16.47
17.70
19.04
20.36
21.35
21.77
21.62
21.17
20.76
20.62
20.68
20.58
19.87
18.21
15.56
12.13
8.30
4.43
0.75
-2.67
-5.92
-9.16
-12.61
-16.49
-20.91
-25.81
-30.80
-35.20
-38.16
-38.93
-37.12
-32.90
-26.90
-20.02
-13.14
-6.85
-1.42
3.19
7.08
10.35
13.02
15.07
16.55
17.52
18.16
18.63
19.03
19.39
19.68
19.84
19.81
19.59
19.24
18.82
18.34
17.65
16.53
14.68
11.94
8.40
4.35
0.26
-3.48
-6.68
-9.44
-12.09
-15.03
-18.62
-22.99
-28.06
-33.50
-38.69
-42.87
-45.28
-45.35
-42.90
-38.22
-32.00
-25.10
-18.27
-11.99
-6.32
-1.11
3.87
8.70
13.23
17.21
20.41
22.74
24.32
25.42
26.29
27.08
27.77
28.15
28.03
27.33
26.14
24.72
23.35
22.18
21.14
19.95
18.26
15.83
12.65
8.89
4.88
0.95
-2.72
-6.13
-9.38
-12.68
-16.20
-20.07
-24.32
-28.87
-33.42
-37.48
-40.36
-41.38
-40.08
-36.38
-30.71
-23.82
-16.62
-9.80
-3.79
1.38
5.83
9.76
13.30
16.45
19.16
21.33
22.88
23.82
24.25
24.38
24.40
24.48
24.59
24.63
24.47
24.05
23.42
22.66
21.80
20.70
19.15
16.90
13.88
10.22
6.23
2.22
-1.56
-5.05
-8.33
-11.57
-15.03
-18.90
-23.30
-28.20
-33.26
-37.94
-41.43
-42.99
-42.04
-38.55
-32.97
-26.16
-19.11
-12.57
-6.93
-2.13
2.13
6.16
10.12
13.90
17.29
20.08
22.20
23.74
24.86
25.72
26.41
26.94
27.28
27.38
27.20
26.72
25.92
24.82
23.43
21.78
19.89
17.71
15.18
12.27
9.01
5.60
2.24
-0.87
-3.72
-6.45
-9.38
-12.86
-17.14
-22.29
-28.15
-34.25
-39.88
-44.27
-46.66
-46.57
-43.90
-38.99
-32.46
-25.11
-17.71
-10.81
-4.74
0.44
4.85
8.67
12.09
15.16
17.84
19.97
21.43
22.23
22.50
22.56
22.64
22.89
23.31
23.77
24.13
24.26
24.12
23.68
22.88
21.60
19.76
17.34
14.40
11.07
7.52
3.89
0.32
-3.07
-6.18
-8.97
-11.53
-14.11
-17.05
-20.69
-25.15
-30.30
-35.64
-40.39
-43.67
-44.75
-43.23
-39.24
-33.39
-26.56
-19.64
-13.29
-7.77
-3.08
0.96
4.50
7.64
10.45
12.99
15.32
17.45
19.37
20.97
22.19
22.99
23.48
23.82
24.15
24.54
24.97
25.35
25.53
25.40
24.83
23.78
22.26
20.36
18.19
15.82
13.24
10.36
7.08
3.43
-0.44
-4.24
-7.77
-10.87
-13.61
-16.17
-18.83
-21.81
-25.24
-29.05
-32.95
-36.40
-38.69
-39.14
-37.33
-33.30
-27.58
-20.99
-14.39
-8.43
-3.38
0.80
4.30
7.34
10.01
12.31
14.23
15.75
16.89
17.73
18.35
18.85
19.29
19.69
20.02
20.25
20.31
20.18
19.88
19.41
18.79
17.95
16.79
15.18
13.11
10.63
7.90
5.11
2.36
-0.29
-2.89
-5.55
-8.38
-11.47
-14.89
-18.67
-22.76
-26.95
-30.86
-33.87
-35.38
-34.87
-32.15
-27.46
-21.40
-14.80
-8.38
-2.64
2.26
6.39
9.89
12.83
15.17
16.80
17.66
17.91
17.79
17.60
17.53
17.63
17.77
17.77
17.52
16.99
16.30
15.51
14.64
13.59
12.17
10.20
7.63
4.58
1.31
-1.87
-4.70
-7.08
-9.12
-11.05
-13.17
-15.78
-19.10
-23.24
-28.16
-33.51
-38.61
-42.57
-44.48
-43.76
-40.41
-34.98
-28.44
-21.73
-15.54
-10.09
-5.27
-0.93
3.04
6.61
9.69
12.28
14.47
16.38
18.07
19.49
20.49
20.99
20.99
20.59
19.93
19.09
18.11
17.02
15.83
14.57
13.19
11.60
9.63
7.19
4.32
1.21
-1.91
-4.80
-7.40
-9.77
-12.08
-14.52
-17.29
-20.55
-24.41
-28.86
-33.57
-37.97
-41.21
-42.49
-41.30
-37.61
-31.94
-25.13
-18.02
-11.26
-5.17
0.17
4.73
8.51
11.49
13.75
15.53
17.09
18.65
20.26
21.83
23.09
23.88
24.09
23.74
22.91
21.76
20.47
19.23
18.13
17.13
15.97
14.34
11.99
8.90
5.32
1.69
-1.64
-4.48
-6.85
-8.97
-11.07
-13.36
-16.05
-19.26
-23.01
-27.14
-31.18
-34.46
-36.27
-36.06
-33.70
-29.44
-23.82
-17.55
-11.22
-5.30
-0.05
4.43
8.18
11.30
13.92
16.12
17.91
19.24
20.04
20.30
20.08
19.50
18.75
17.92
17.13
16.41
15.77
15.17
14.50
13.60
12.25
10.34
7.82
4.84
1.66
-1.42
-4.14
-6.41
-8.26
-9.85
-11.43
-13.32
-15.86
-19.34
-23.77
-28.76
-33.50
-36.94
-38.15
-36.64
-32.54
-26.52
-19.50
-12.39
-5.84
-0.23
4.36
7.95
10.68
12.69
14.11
15.06
15.67
16.05
16.35
16.67
17.04
17.33
17.34
16.93
16.09
15.01
13.96
13.12
12.53
12.01
11.23
9.94
8.01
5.49
2.59
-0.40
-3.29
-5.98
-8.57
-11.32
-14.54
-18.49
-23.14
-28.14
-32.83
-36.36
-37.97
-37.21
-34.10
-29.12
-23.05
-16.70
-10.71
-5.40
-0.77
3.36
7.18
10.78
14.13
17.11
19.54
21.32
22.43
22.97
23.12
23.09
23.07
23.12
23.15
22.96
22.37
21.25
19.65
17.72
15.63
13.44
11.13
8.59
5.78
2.74
-0.36
-3.38
-6.30
-9.20
-12.30
-15.80
-19.84
-24.45
-29.56
-34.97
-40.31
-45.01
-48.37
-49.70
-48.53
-44.80
-38.88
-31.47
-23.41
-15.44
-8.10
-1.65
3.88
8.58
12.56
15.92
18.68
20.89
22.59
23.92
25.05
26.13
27.24
28.30
29.19
29.74
29.93
29.79
29.40
28.82
28.02
26.90
25.37
23.40
21.06
18.46
15.70
12.76
9.57
6.03
2.12
-1.99
-6.10
-9.95
-13.37
-16.45
-19.42
-22.64
-26.43
-30.99
-36.15
-41.41
-45.94
-48.83
-49.30
-47.01
-42.15
-35.42
-27.76
-20.02
-12.80
-6.32
-0.58
4.51
9.04
13.01
16.41
19.29
21.69
23.73
25.42
26.78
27.75
28.37
28.67
28.75
28.72
28.60
28.38
27.97
27.33
26.40
25.16
23.68
22.02
20.23
18.28
16.11
13.60
10.66
7.29
3.62
-0.15
-3.78
-7.12
-10.23
-13.31
-16.74
-20.83
-25.71
-31.12
-36.40
-40.53
-42.46
-41.48
-37.46
-31.01
-23.16
-15.04
-7.46
-0.87
4.67
9.23
12.88
15.61
17.44
18.49
19.03
19.28
19.42
19.45
19.27
18.72
17.79
16.52
15.10
13.77
12.72
12.05
11.69
11.43
10.91
9.86
8.10
5.65
2.66
-0.59
-3.86
-6.95
-9.70
-12.04
-13.92
-15.41
-16.73
-18.20
-20.20
-22.98
-26.48
-30.24
-33.41
-35.07
-34.49
-31.43
-26.25
-19.73
-12.83
-6.32
-0.58
4.25
8.26
11.55
14.13
16.01
17.25
17.96
18.29
18.38
18.31
18.18
18.06
17.97
17.87
17.66
17.28
16.69
15.95
15.17
14.39
13.54
12.44
10.87
8.74
6.15
3.31
0.51
-2.09
-4.47
-6.81
-9.39
-12.53
-16.42
-20.99
-25.83
-30.17
-33.11
-33.88
-32.11
-27.96
-22.05
-15.28
-8.51
-2.35
2.89
7.12
10.43
12.92
14.74
16.05
16.99
17.66
18.05
18.07
17.64
16.77
15.64
14.53
13.69
13.22
12.98
12.71
12.14
11.08
9.51
7.51
5.19
2.69
0.06
-2.61
-5.23
-7.79
-10.31
-12.96
-16.01
-19.61
-23.77
-28.11
-31.93
-34.44
-34.97
-33.22
-29.36
-23.95
-17.74
-11.43
-5.52
-0.24
4.34
8.28
11.66
14.59
17.17
19.47
21.51
23.18
24.34
24.87
24.77
24.20
23.40
22.62
22.01
21.51
20.93
19.96
18.39
16.10
13.12
9.60
5.71
1.68
-2.27
-5.99
-9.42
-12.62
-15.85
-19.41
-23.53
-28.20
-33.08
-37.48
-40.58
-41.66
-40.37
-36.80
-31.43
-24.96
-18.05
-11.22
-4.78
1.14
6.45
11.10
15.09
18.46
21.28
23.58
25.38
26.62
27.27
27.37
27.02
26.42
25.78
25.20
24.75
24.39
24.04
23.60
22.92
21.79
19.99
17.37
13.90
9.80
5.44
1.24
-2.50
-5.67
-8.43
-11.12
-14.13
-17.69
-21.86
-26.48
-31.18
-35.37
-38.41
-39.67
-38.75
-35.63
-30.70
-24.62
-18.11
-11.79
-5.93
-0.61
4.28
8.77
12.85
16.44
19.42
21.71
23.34
24.46
25.27
26.06
27.00
28.11
29.21
29.99
30.19
29.68
28.54
26.96
25.19
23.36
21.48
19.52
17.39
15.07
12.51
9.78
6.91
3.99
1.10
-1.69
-4.38
-7.01
-9.68
-12.62
-16.00
-20.00
-24.65
-29.73
-34.73
-38.92
-41.45
-41.60
-39.07
-34.03
-27.16
-19.40
-11.71
-4.77
1.07
5.75
9.43
12.30
14.52
16.22
17.50
18.50
19.34
20.14
20.96
21.81
22.59
23.18
23.51
23.56
23.40
23.16
22.93
22.67
22.21
21.26
19.62
17.24
14.30
11.10
7.96
5.06
2.39
-0.19
-2.90
-5.94
-9.48
-13.63
-18.43
-23.67
-28.96
-33.64
-36.89
-38.00
-36.61
-32.84
-27.28
-20.82
-14.33
-8.39
-3.20
1.30
5.31
8.85
11.82
14.05
15.46
16.19
16.54
16.88
17.41
18.10
18.70
18.98
18.77
18.15
17.28
16.37
15.48
14.55
13.39
11.75
9.47
6.54
3.13
-0.52
-4.15
-7.58
-10.77
-13.70
-16.42
-18.99
-21.53
-24.26
-27.40
-31.07
-35.02
-38.65
-41.10
-41.56
-39.67
-35.63
-30.13
-23.99
-17.89
-12.16
-6.81
-1.81
2.88
7.14
10.81
13.77
15.99
17.59
18.72
19.55
20.22
20.75
21.12
21.20
20.90
20.19
19.17
17.99
16.86
15.78
14.67
13.28
11.40
8.95
6.06
2.97
-0.01
-2.62
-4.77
-6.53
-8.16
-10.04
-12.53
-15.92
-20.22
-25.18
-30.21
-34.60
-37.62
-38.71
-37.68
-34.61
-29.89
-24.06
-17.73
-11.42
-5.58
-0.48
3.80
7.23
9.88
11.87
13.33
14.43
15.32
16.11
16.85
17.53
18.07
18.42
18.58
18.60
18.52
18.39
18.22
18.00
17.71
17.27
16.52
15.25
13.29
10.63
7.44
4.07
0.94
-1.76
-4.07
-6.35
-9.10
-12.72
-17.37
-22.76
-28.26
-33.02
-36.18
-37.15
-35.67
-31.89
-26.32
-19.60
-12.46
-5.61
0.42
5.32
8.99
11.62
13.48
14.91
16.12
17.16
18.00
18.58
18.90
18.98
18.84
18.48
17.92
17.20
16.41
15.64
14.94
14.31
13.62
12.63
11.12
8.93
6.11
2.90
-0.30
-3.06
-5.21
-6.83
-8.32
-10.20
-12.92
-16.65
-21.11
-25.66
-29.46
-31.66
-31.68
-29.32
-24.84
-18.86
-12.16
-5.47
0.68
6.02
10.45
13.97
16.60
18.37
19.36
19.71
19.63
19.31
18.87
18.33
17.63
16.73
15.62
14.41
13.30
12.47
11.95
11.60
11.09
10.06
8.30
5.79
2.77
-0.42
-3.51
-6.35
-9.02
-11.67
-14.55
-17.83
-21.67
-26.09
-30.96
-35.90
-40.26
-43.20
-43.97
-42.16
-37.89
-31.83
-24.86
-17.83
-11.29
-5.49
-0.42
3.92
7.52
10.39
12.54
14.19
15.62
17.01
18.43
19.70
20.60
20.93
20.71
20.09
19.31
18.55
17.83
17.06
16.04
14.55
12.46
9.77
6.60
3.19
-0.19
-3.30
-6.01
-8.37
-10.55
-12.86
-15.62
-19.12
-23.49
-28.58
-33.94
-38.76
-42.12
-43.22
-41.64
-37.47
-31.35
-24.15
-16.77
-9.82
-3.56
2.03
7.08
11.65
15.68
18.98
21.45
23.12
24.17
24.82
25.22
25.38
25.20
24.58
23.53
22.25
21.00
20.00
19.37
19.02
18.69
18.08
16.86
14.83
12.00
8.54
4.82
1.21
-2.02
-4.79
-7.21
-9.56
-12.19
-15.39
-19.29
-23.72
-28.18
-31.90
-34.06
-34.00
-31.53
-26.94
-20.93
-14.37
-7.99
-2.28
2.55
6.50
9.73
12.41
14.70
16.75
18.59
20.18
21.40
22.14
22.33
21.94
21.06
19.82
18.44
17.14
16.08
15.29
14.69
14.00
12.93
11.29
9.02
6.27
3.35
0.59
-1.77
-3.69
-5.35
-7.08
-9.34
-12.47
-16.61
-21.56
-26.81
-31.52
-34.79
-35.89
-34.46
-30.63
-24.98
-18.32
-11.44
-4.92
0.98
6.19
10.71
14.48
17.44
19.54
20.86
21.55
21.80
21.77
21.52
21.02
20.31
19.45
18.61
17.92
17.42
17.05
16.58
15.76
14.30
12.05
9.01
5.36
1.44
-2.40
-5.89
-9.00
-11.93
-15.00
-18.55
-22.77
-27.61
-32.71
-37.43
-41.01
-42.72
-42.06
-38.93
-33.67
-26.98
-19.74
-12.72
-6.46
-1.15
3.23
6.85
9.88
12.40
14.44
16.01
17.16
17.97
18.55
18.96
19.19
19.18
18.83
18.14
17.23
16.31
15.59
15.10
14.69
14.01
12.73
10.64
7.81
4.50
1.09
-2.08
-4.81
-7.12
-9.17
-11.28
-13.82
-17.11
-21.28
-26.06
-30.82
-34.60
-36.51
-35.98
-33.11
-28.52
-23.08
-17.61
-12.51
-7.88
-3.55
0.62
4.67
8.47
11.84
14.69
16.97
18.74
20.05
20.93
21.37
21.32
20.76
19.73
18.46
17.18
16.14
15.45
14.98
14.44
13.42
11.67
9.11
6.01
2.71
-0.38
-3.05
-5.28
-7.27
-9.36
-11.87
-15.06
-18.99
-23.53
-28.27
-32.63
-35.87
-37.23
-36.17
-32.57
-26.84
-19.78
-12.45
-5.74
-0.19
4.13
7.47
10.18
12.49
14.45
16.01
17.11
17.82
18.30
18.77
19.34
19.98
20.55
20.90
20.96
20.77
20.42
19.92
19.20
18.10
16.47
14.30
11.69
8.86
6.02
3.34
0.85
-1.51
-3.90
-6.57
-9.79
-13.71
-18.26
-23.03
-27.28
-30.20
-31.19
-29.98
-26.80
-22.18
-16.75
-11.09
-5.63
-0.62
3.82
7.72
11.14
14.13
16.66
18.60
19.83
20.27
20.06
19.47
18.88
18.55
18.56
18.75
18.88
18.72
18.19
17.36
16.28
14.94
13.23
10.98
8.13
4.80
1.24
-2.20
-5.28
-7.99
-10.53
-13.19
-16.29
-20.02
-24.36
-29.00
-33.44
-37.03
-39.17
-39.43
-37.68
-34.13
-29.26
-23.66
-17.91
-12.41
-7.36
-2.75
1.50
5.47
9.09
12.19
14.57
16.11
16.88
17.16
17.28
17.49
17.87
18.30
18.69
18.98
19.20
19.42
19.61
19.62
19.17
18.00
15.97
13.13
9.70
6.05
2.53
-0.57
-3.16
-5.36
-7.43
-9.72
-12.56
-16.15
-20.48
-25.23
-29.82
-33.46
-35.37
-35.03
-32.37
-27.75
-21.88
-15.55
-9.36
-3.68
1.42
5.97
10.00
13.45
16.24
18.30
19.67
20.50
20.97
21.33
21.70
22.11
22.55
22.92
23.23
23.43
23.54
23.53
23.30
22.69
21.52
19.66
17.15
14.17
10.98
7.85
4.92
2.10
-0.79
-4.03
-7.78
-12.07
-16.76
-21.62
-26.33
-30.43
-33.36
-34.54
-33.57
-30.41
-25.46
-19.44
-13.14
-7.14
-1.68
3.24
7.68
11.63
14.91
17.34
18.84
19.58
19.85
19.97
20.06
20.11
20.02
19.70
19.22
18.73
18.36
18.15
17.91
17.35
16.15
14.17
11.50
8.44
5.40
2.69
0.38
-1.66
-3.77
-6.31
-9.60
-13.72
-18.52
-23.56
-28.23
-31.80
-33.65
-33.43
-31.20
-27.39
-22.71
-17.81
-13.18
-9.03
-5.34
-1.99
1.06
3.80
6.09
7.85
9.11
9.96
10.55
10.97
11.22
11.22
11.01
10.67
10.37
10.23
10.23
10.17
9.68
8.50
6.52
3.92
1.07
-1.66
-4.00
-5.91
-7.57
-9.21
-11.11
-13.46
-16.39
-19.95
-24.15
-28.79
-33.42
-37.31
-39.58
-39.51
-36.85
-31.90
-25.49
-18.62
-12.09
-6.29
-1.25
3.23
7.32
11.02
14.24
16.85
18.80
20.20
21.20
21.95
22.49
22.80
22.78
22.36
21.58
20.61
19.66
18.87
18.19
17.37
16.12
14.16
11.46
8.23
4.83
1.62
-1.24
-3.71
-5.96
-8.16
-10.53
-13.17
-16.20
-19.62
-23.33
-27.02
-30.17
-32.14
-32.38
-30.58
-26.82
-21.57
-15.52
-9.35
-3.56
1.63
6.18
10.12
13.40
15.99
17.88
19.14
20.04
20.79
21.52
22.16
22.48
22.24
21.34
19.92
18.28
16.78
15.61
14.77
14.04
13.10
11.67
9.62
7.03
4.09
1.14
-1.61
-4.02
-6.18
-8.26
-10.50
-13.12
-16.18
-19.57
-22.98
-25.88
-27.70
-27.91
-26.22
-22.70
-17.75
-12.02
-6.22
-0.89
3.64
7.27
10.08
12.24
13.94
15.37
16.71
18.06
19.40
20.57
21.34
21.54
21.08
20.11
18.90
17.72
16.74
15.89
14.98
13.74
11.98
9.72
7.11
4.39
1.72
-0.84
-3.36
-5.95
-8.73
-11.80
-15.28
-19.29
-23.87
-28.88
-33.86
-38.07
-40.68
-41.06
-38.95
-34.64
-28.74
-22.06
-15.24
-8.73
-2.78
2.50
6.98
10.53
13.06
14.62
15.42
15.76
15.91
16.02
16.06
15.90
15.43
14.65
13.72
12.86
12.25
11.92
11.74
11.46
10.84
9.73
8.15
6.19
4.01
1.76
-0.49
-2.75
-5.13
-7.78
-10.89
-14.61
-19.01
-23.95
-29.07
-33.81
-37.51
-39.55
-39.52
-37.32
-33.18
-27.61
-21.25
-14.71
-8.47
-2.77
2.36
7.01
11.20
14.90
17.97
20.30
21.84
22.74
23.24
23.60
23.94
24.20
24.24
23.91
23.14
22.05
20.81
19.55
18.33
17.08
15.69
14.03
12.05
9.74
7.14
4.34
1.45
-1.40
-4.06
-6.49
-8.73
-11.03
-13.70
-16.97
-20.87
-25.08
-29.00
-31.91
-33.16
-32.44
-29.76
-25.45
-20.01
-14.05
-8.10
-2.60
2.11
5.90
8.84
11.17
13.15
14.99
16.76
18.35
19.59
20.28
20.33
19.80
18.83
17.63
16.38
15.23
14.19
13.26
12.36
11.42
10.35
9.04
7.48
5.61
3.51
1.27
-1.02
-3.33
-5.71
-8.32
-11.31
-14.76
-18.60
-22.60
-26.36
-29.37
-31.11
-31.10
-29.10
-25.23
-19.91
-13.81
-7.64
-1.96
2.94
7.01
10.36
13.12
15.36
17.10
18.35
19.15
19.66
20.01
20.34
20.68
20.93
20.96
20.65
19.98
19.04
17.96
16.82
15.53
13.91
11.73
8.86
5.34
1.38
-2.71
-6.60
-10.11
-13.23
-16.09
-18.94
-22.07
-25.68
-29.80
-34.17
-38.27
-41.43
-42.99
-42.54
-40.08
-35.98
-30.82
-25.24
-19.68
-14.37
-9.35
-4.60
-0.14
3.98
7.64
10.77
13.34
15.38
16.93
18.07
18.84
19.30
19.49
19.46
19.27
19.00
18.68
18.34
17.91
17.25
16.21
14.66
12.60
10.09
7.26
4.27
1.25
-1.70
-4.51
-7.14
-9.71
-12.37
-15.41
-19.08
-23.42
-28.18
-32.74
-36.29
-38.07
-37.61
-34.93
-30.48
-24.98
-19.15
-13.50
-8.28
-3.49
1.01
5.32
9.46
13.37
16.89
19.81
22.02
23.46
24.21
24.45
24.39
24.21
23.97
23.66
23.22
22.68
22.04
21.36
20.60
19.65
18.32
16.54
14.32
11.73
8.99
6.21
3.53
1.02
-1.29
-3.41
-5.45
-7.55
-9.92
-12.74
-16.15
-20.12
-24.39
-28.50
-31.71
-33.27
-32.57
-29.47
-24.33
-17.94
-11.27
-5.09
0.13
4.35
7.71
10.45
12.71
14.58
16.03
17.07
17.71
17.99
17.98
17.77
17.46
17.12
16.80
16.49
16.10
15.57
14.81
13.77
12.41
10.72
8.79
6.67
4.50
2.38
0.40
-1.40
-3.02
-4.51
-5.97
-7.53
-9.36
-11.65
-14.52
-17.93
-21.57
-24.88
-27.16
-27.77
-26.37
-23.07
-18.37
-12.96
-7.53
-2.50
1.94
5.79
9.06
11.74
13.80
15.28
16.26
16.90
17.34
17.68
17.92
18.05
18.11
18.11
18.11
18.12
18.11
18.01
17.76
17.29
16.49
15.25
13.48
11.10
8.17
4.81
1.24
-2.28
-5.63
-8.75
-11.72
-14.74
-18.05
-21.85
-26.20
-30.94
-35.64
-39.65
-42.26
-42.87
-41.21
-37.45
-32.03
-25.65
-18.97
-12.53
-6.63
-1.45
2.94
6.56
9.43
11.62
13.20
14.31
15.10
15.73
16.30
16.86
17.35
17.63
17.58
17.15
16.45
15.67
15.03
14.61
14.32
13.93
13.16
11.82
9.91
7.62
5.23
2.96
0.86
-1.13
-3.22
-5.63
-8.48
-11.78
-15.46
-19.39
-23.39
-27.21
-30.51
-32.83
-33.70
-32.75
-29.87
-25.34
-19.75
-13.84
-8.26
-3.39
0.71
4.22
7.38
10.35
13.07
15.39
17.11
18.16
18.62
18.72
18.73
18.84
19.08
19.38
19.62
19.72
19.70
19.64
19.57
19.42
19.01
18.11
16.58
14.46
11.89
9.14
6.43
3.91
1.59
-0.61
-2.81
-5.14
-7.73
-10.78
-14.40
-18.62
-23.19
-27.57
-31.00
-32.73
-32.24
-29.47
-24.88
-19.24
-13.41
-8.07
-3.55
0.13
3.11
5.61
7.80
9.71
11.36
12.71
13.74
14.49
15.05
15.48
15.81
16.01
16.07
15.96
15.75
15.55
15.47
15.51
15.56
15.38
14.67
13.23
11.01
8.10
4.79
1.38
-1.83
-4.64
-7.04
-9.15
-11.24
-13.61
-16.58
-20.20
-24.25
-28.18
-31.19
-32.57
-31.83
-28.99
-24.47
-18.99
-13.28
-7.85
-2.97
1.34
5.10
8.29
10.83
12.65
13.84
14.60
15.24
15.96
16.82
17.69
18.35
18.62
18.44
17.86
16.99
15.96
14.84
13.70
12.50
11.16
9.54
7.52
5.10
2.37
-0.48
-3.30
-6.01
-8.67
-11.36
-14.17
-17.18
-20.44
-24.14
-28.36
-33.05
-37.77
-41.76
-44.18
-44.37
-42.19
-38.00
-32.54
-26.58
-20.71
-15.22
-10.17
-5.50
-1.20
2.69
6.12
9.09
11.66
14.00
16.23
18.46
20.64
22.64
24.24
25.27
25.67
25.47
24.82
23.86
22.75
21.60
20.49
19.41
18.27
16.84
14.91
12.33
9.15
5.60
2.04
-1.24
-4.06
-6.52
-8.85
-11.40
-14.41
-18.05
-22.27
-26.87
-31.48
-35.54
-38.43
-39.61
-38.69
-35.68
-30.92
-25.10
-18.94
-13.10
-7.93
-3.56
0.11
3.21
5.81
7.88
9.40
10.35
10.79
10.86
10.74
10.51
10.22
9.80
9.12
8.02
6.44
4.32
1.75
-1.20
-4.52
-8.26
-12.57
-17.55
-23.24
-29.54
-36.27
-43.22
-50.27
-57.38
-64.59
-72.00
-79.76
-88.02
-96.95
-106.63
-116.95
-127.58
-137.96
-147.47
-155.63
-162.30
-167.68
-172.26
-176.44
-180.41
-183.92
-186.26
-186.37
-183.04
-175.08
-161.44
-141.45
-114.93
-82.35
-44.77
-3.77
38.69
80.54
119.72
154.41
183.20
205.18
220.06
228.09
230.01
226.86
219.77
209.82
198.03
185.16
171.86
158.54
145.47
132.79
120.48
108.43
96.47
84.46
72.38
60.48
49.28
39.47
31.76
26.63
24.20
24.14
25.83
28.47
31.33
33.88
35.82
37.12
37.82
38.03
37.78
37.11
36.01
34.54
32.80
30.84
28.73
26.49
24.21
21.99
19.97
18.26
16.84
15.54
14.13
12.40
10.20
7.48
4.28
0.70
-3.12
-6.97
-10.59
-13.83
-16.68
-19.37
-22.27
-25.79
-30.16
-35.26
-40.58
-45.25
-48.31
-48.98
-46.91
-42.30
-35.77
-28.20
-20.41
-13.07
-6.52
-0.85
3.98
8.13
11.74
14.85
17.42
19.34
20.54
21.05
21.01
20.65
20.09
19.39
18.55
17.63
16.78
16.19
15.96
16.00
15.98
15.54
14.40
12.47
9.92
6.99
3.91
0.86
-2.07
-4.88
-7.59
-10.31
-13.26
-16.67
-20.69
-25.21
-29.79
-33.62
-35.72
-35.24
-31.76
-25.43
-16.93
-7.35
2.16
10.61
17.34
22.10
25.09
26.81
27.84
28.70
29.58
30.40
30.87
30.68
29.76
28.21
26.26
24.17
22.02
19.88
17.73
15.60
13.51
11.45
9.34
6.98
4.16
0.80
-3.04
-7.12
-11.06
-14.51
-17.28
-19.43
-21.26
-23.20
-25.67
-28.94
-32.95
-37.29
-41.27
-44.04
-44.84
-43.17
-38.90
-32.34
-24.22
-15.49
-7.15
0.02
5.55
9.37
11.75
13.16
14.10
14.86
15.58
16.19
16.61
16.79
16.82
16.78
16.74
16.69
16.56
16.33
16.03
15.76
15.56
15.33
14.84
13.80
12.05
9.67
6.94
4.18
1.59
-0.83
-3.26
-5.96
-9.16
-12.96
-17.32
-22.01
-26.62
-30.53
-33.09
-33.72
-32.16
-28.59
-23.53
-17.69
-11.76
-6.16
-1.11
3.37
7.32
10.79
13.82
16.41
18.61
20.42
21.91
23.12
24.15
25.01
25.69
26.12
26.20
25.95
25.49
24.99
24.48
23.80
22.57
20.36
16.90
12.37
7.24
2.22
-2.12
-5.53
-8.17
-10.46
-12.84
-15.64
-19.05
-23.10
-27.71
-32.69
-37.63
-41.95
-44.96
-46.05
-44.87
-41.49
-36.34
-30.04
-23.24
-16.43
-9.83
-3.54
2.41
7.95
12.94
17.17
20.48
22.84
24.36
25.29
25.90
26.37
26.75
26.93
26.79
26.24
25.34
24.27
23.23
22.35
21.48
20.34
18.54
15.83
12.26
8.13
3.99
0.29
-2.72
-5.12
-7.28
-9.71
-12.85
-16.99
-22.12
-27.91
-33.75
-38.78
-42.16
-43.18
-41.56
-37.46
-31.41
-24.21
-16.61
-9.21
-2.36
3.74
9.03
13.49
17.13
19.97
22.10
23.59
24.53
25.10
25.45
25.77
26.19
26.72
27.27
27.70
27.91
27.85
27.56
27.03
26.20
24.90
22.91
20.16
16.72
12.87
8.95
5.25
1.89
-1.18
-4.20
-7.43
-11.13
-15.46
-20.46
-25.96
-31.49
-36.35
-39.67
-40.72
-39.11
-34.96
-28.86
-21.70
-14.32
-7.36
-1.16
4.19
8.72
12.47
15.44
17.65
19.18
20.17
20.84
21.40
22.01
22.70
23.37
23.79
23.76
23.17
22.13
20.82
19.42
17.97
16.35
14.33
11.68
8.36
4.52
0.46
-3.50
-7.16
-10.49
-13.63
-16.79
-20.22
-24.11
-28.54
-33.38
-38.22
-42.43
-45.19
-45.83
-44.00
-39.83
-33.89
-26.99
-19.89
-13.11
-6.95
-1.43
3.40
7.50
10.81
13.28
14.95
15.99
16.64
17.18
17.80
18.59
19.48
20.30
20.84
20.94
20.59
19.87
18.93
17.87
16.66
15.18
13.25
10.77
7.83
4.59
1.30
-1.90
-4.99
-8.10
-11.45
-15.25
-19.63
-24.56
-29.86
-35.15
-39.86
-43.32
-44.85
-43.97
-40.57
-35.03
-28.05
-20.51
-13.17
-6.47
-0.54
4.72
9.46
13.70
17.34
20.19
22.12
23.19
23.68
23.89
24.16
24.57
25.04
25.29
25.12
24.44
23.32
21.96
20.55
19.18
17.82
16.35
14.62
12.52
9.98
7.01
3.71
0.24
-3.16
-6.27
-8.98
-11.36
-13.64
-16.20
-19.34
-23.20
-27.62
-32.15
-36.06
-38.64
-39.29
-37.78
-34.24
-29.10
-22.94
-16.31
-9.66
-3.32
2.43
7.39
11.40
14.45
16.68
18.32
19.55
20.49
21.17
21.57
21.70
21.64
21.44
21.15
20.75
20.23
19.62
18.95
18.25
17.46
16.48
15.17
13.45
11.32
8.82
6.10
3.27
0.46
-2.26
-4.86
-7.41
-10.11
-13.25
-17.06
-21.58
-26.48
-31.17
-34.82
-36.67
-36.21
-33.38
-28.56
-22.45
-15.81
-9.34
-3.48
1.58
5.77
9.12
11.65
13.43
14.59
15.31
15.84
16.37
17.04
17.83
18.67
19.41
19.99
20.40
20.66
20.80
20.81
20.57
19.89
18.56
16.43
13.51
9.98
6.17
2.49
-0.83
-3.73
-6.42
-9.31
-12.86
-17.46
-23.16
-29.63
-36.11
-41.66
-45.37
-46.70
-45.54
-42.24
-37.41
-31.67
-25.52
-19.28
-13.16
-7.37
-2.08
2.50
6.28
9.31
11.73
13.68
15.25
16.40
17.10
17.32
17.14
16.75
16.40
16.29
16.53
17.03
17.64
18.10
18.15
17.55
16.16
13.95
11.07
7.74
4.31
1.04
-2.00
-4.90
-7.95
-11.54
-15.97
-21.40
-27.68
-34.35
-40.71
-45.89
-49.08
-49.77
-47.84
-43.63
-37.75
-30.92
-23.73
-16.61
-9.79
-3.42
2.37
7.43
11.67
15.05
17.65
19.65
21.22
22.48
23.44
24.01
24.14
23.79
23.03
21.99
20.83
19.66
18.50
17.36
16.14
14.79
13.19
11.26
8.98
6.38
3.58
0.68
-2.25
-5.22
-8.26
-11.45
-14.83
-18.50
-22.56
-27.06
-31.87
-36.58
-40.50
-42.83
-43.00
-40.82
-36.56
-30.84
-24.30
-17.46
-10.66
-4.11
2.03
7.53
12.14
15.75
18.35
20.13
21.38
22.36
23.24
24.10
24.89
25.54
26.00
26.24
26.28
26.12
25.79
25.26
24.42
23.13
21.22
18.59
15.25
11.42
7.46
3.81
0.76
-1.65
-3.61
-5.50
-7.76
-10.77
-14.73
-19.56
-24.96
-30.29
-34.78
-37.60
-38.16
-36.26
-32.21
-26.66
-20.45
-14.29
-8.65
-3.70
0.59
4.34
7.63
10.49
12.87
14.73
16.04
16.92
17.49
17.95
18.33
18.63
18.74
18.57
18.10
17.42
16.69
15.88
14.92
13.58
11.70
9.31
6.62
3.94
1.53
-0.60
-2.63
-4.91
-7.76
-11.41
-15.86
-20.90
-26.08
-30.77
-34.21
-35.72
-34.82
-31.51
-26.21
-19.69
-12.82
-6.26
-0.40
4.68
9.10
13.00
16.45
19.43
21.89
23.75
24.98
25.59
25.65
25.28
24.64
23.84
22.98
22.08
21.12
20.08
18.94
17.69
16.28
14.57
12.34
9.43
5.83
1.70
-2.60
-6.70
-10.32
-13.44
-16.25
-19.15
-22.56
-26.74
-31.70
-37.17
-42.51
-46.89
-49.43
-49.51
-46.86
-41.77
-34.91
-27.20
-19.48
-12.33
-5.98
-0.39
4.59
9.09
13.16
16.73
19.71
22.09
23.90
25.24
26.22
26.96
27.46
27.67
27.50
26.92
25.99
24.87
23.75
22.68
21.53
20.00
17.77
14.70
10.97
6.97
3.19
-0.04
-2.64
-4.80
-6.87
-9.20
-12.07
-15.68
-20.11
-25.26
-30.77
-35.99
-40.09
-42.25
-41.94
-39.08
-34.12
-27.79
-20.93
-14.22
-8.03
-2.45
2.59
7.18
11.39
15.20
18.61
21.64
24.29
26.55
28.32
29.54
30.13
30.12
29.63
28.81
27.78
26.69
25.61
24.61
23.69
22.78
21.77
20.47
18.76
16.57
13.87
10.77
7.38
3.88
0.42
-2.83
-5.83
-8.63
-11.45
-14.55
-18.18
-22.40
-27.00
-31.49
-35.17
-37.32
-37.32
-34.92
-30.28
-24.01
-16.94
-9.86
-3.41
2.09
6.56
10.08
12.73
14.62
15.93
16.85
17.63
18.47
19.45
20.48
21.36
21.91
22.04
21.83
21.48
21.16
20.97
20.82
20.47
19.61
18.00
15.53
12.30
8.51
4.49
0.56
-3.06
-6.25
-9.04
-11.53
-13.91
-16.45
-19.36
-22.79
-26.67
-30.60
-33.90
-35.74
-35.44
-32.71
-27.84
-21.55
-14.77
-8.27
-2.47
2.55
6.94
10.79
14.06
16.60
18.31
19.25
19.66
19.91
20.24
20.75
21.30
21.69
21.70
21.26
20.41
19.26
17.99
16.70
15.47
14.28
13.01
11.46
9.40
6.71
3.37
-0.41
-4.35
-8.12
-11.59
-14.83
-18.09
-21.71
-25.93
-30.79
-35.99
-40.97
-44.95
-47.17
-47.08
-44.53
-39.81
-33.56
-26.56
-19.50
-12.80
-6.62
-0.94
4.25
8.89
12.83
15.95
18.23
19.79
20.82
21.54
22.09
22.50
22.70
22.62
22.21
21.50
20.61
19.66
18.76
17.90
16.99
15.89
14.44
12.58
10.29
7.62
4.72
1.69
-1.26
-4.04
-6.63
-9.18
-11.94
-15.16
-19.02
-23.47
-28.21
-32.72
-36.43
-38.82
-39.53
-38.36
-35.36
-30.76
-24.99
-18.57
-12.06
-5.94
-0.58
3.89
7.47
10.30
12.54
14.33
15.73
16.80
17.61
18.35
19.17
20.18
21.30
22.32
22.97
23.09
22.68
21.96
21.13
20.31
19.42
18.23
16.58
14.37
11.70
8.71
5.53
2.25
-1.07
-4.33
-7.41
-10.20
-12.74
-15.25
-18.04
-21.34
-25.13
-29.01
-32.29
-34.18
-34.11
-31.89
-27.74
-22.27
-16.15
-9.97
-4.16
1.04
5.44
8.89
11.30
12.75
13.49
13.88
14.27
14.88
15.69
16.57
17.32
17.83
18.11
18.23
18.30
18.37
18.40
18.25
17.73
16.65
14.89
12.51
9.64
6.50
3.31
0.22
-2.74
-5.59
-8.43
-11.41
-14.72
-18.48
-22.69
-27.13
-31.31
-34.56
-36.22
-35.79
-33.14
-28.51
-22.46
-15.70
-8.95
-2.75
2.60
7.01
10.57
13.41
15.65
17.36
18.56
19.27
19.55
19.52
19.29
18.96
18.52
17.93
17.14
16.15
15.08
14.05
13.13
12.21
11.03
9.25
6.66
3.28
-0.60
-4.55
-8.22
-11.45
-14.32
-17.11
-20.11
-23.58
-27.56
-31.90
-36.23
-39.96
-42.46
-43.15
-41.68
-38.08
-32.73
-26.29
-19.46
-12.89
-6.99
-2.00
2.03
5.20
7.66
9.61
11.26
12.77
14.14
15.35
16.29
16.85
17.01
16.78
16.23
15.43
14.48
13.53
12.71
12.08
11.61
11.03
10.00
8.24
5.73
2.70
-0.40
-3.17
-5.39
-7.13
-8.74
-10.63
-13.26
-16.83
-21.35
-26.45
-31.47
-35.49
-37.61
-37.21
-34.15
-28.90
-22.32
-15.36
-8.79
-3.02
1.91
6.09
9.72
12.88
15.61
17.90
19.80
21.39
22.70
23.71
24.31
24.36
23.81
22.75
21.39
20.03
18.87
17.97
17.21
16.39
15.26
13.63
11.43
8.72
5.68
2.54
-0.49
-3.29
-5.96
-8.71
-11.88
-15.71
-20.26
-25.25
-30.12
-34.10
-36.42
-36.53
-34.22
-29.76
-23.77
-17.09
-10.46
-4.39
0.94
5.57
9.54
12.83
15.36
17.10
18.12
18.65
18.93
19.11
19.18
19.05
18.67
18.09
17.45
16.84
16.29
15.68
14.85
13.65
12.04
10.08
7.84
5.43
2.92
0.39
-2.12
-4.63
-7.33
-10.44
-14.26
-18.92
-24.26
-29.76
-34.66
-38.10
-39.40
-38.30
-34.96
-29.91
-23.86
-17.44
-11.13
-5.22
0.11
4.72
8.50
11.41
13.56
15.12
16.29
17.22
17.96
18.53
18.86
18.92
18.68
18.11
17.26
16.26
15.25
14.38
13.65
12.91
11.86
10.22
7.84
4.79
1.36
-2.07
-5.19
-7.86
-10.13
-12.28
-14.62
-17.51
-21.20
-25.67
-30.63
-35.44
-39.27
-41.32
-41.02
-38.26
-33.39
-27.05
-20.02
-12.96
-6.32
-0.31
5.02
9.71
13.79
17.31
20.22
22.51
24.19
25.25
25.79
25.89
25.69
25.28
24.76
24.19
23.65
23.21
22.90
22.65
22.30
21.67
20.55
18.84
16.51
13.67
10.44
6.99
3.43
-0.10
-3.50
-6.67
-9.56
-12.21
-14.78
-17.50
-20.69
-24.54
-28.92
-33.36
-37.08
-39.24
-39.22
-36.84
-32.39
-26.48
-19.86
-13.14
-6.74
-0.90
4.25
8.69
12.41
15.44
17.83
19.68
21.09
22.18
23.05
23.74
24.25
24.54
24.60
24.40
23.98
23.43
22.79
22.12
21.41
20.60
19.58
18.20
16.30
13.77
10.64
7.08
3.43
0.03
-2.86
-5.25
-7.32
-9.43
-11.93
-15.10
-18.95
-23.21
-27.39
-30.76
-32.64
-32.53
-30.25
-26.06
-20.49
-14.24
-7.94
-2.08
3.08
7.47
11.09
14.00
16.26
17.95
19.15
19.96
20.50
20.82
20.97
20.93
20.65
20.10
19.32
18.41
17.52
16.75
16.10
15.46
14.62
13.34
11.45
8.91
5.87
2.55
-0.78
-3.90
-6.74
-9.38
-12.03
-14.92
-18.25
-22.01
-25.93
-29.50
-32.04
-32.98
-31.94
-28.95
-24.33
-18.64
-12.49
-6.36
-0.63
4.44
8.66
11.96
14.34
15.99
17.18
18.10
18.86
19.38
19.56
19.35
18.82
18.11
17.33
16.52
15.59
14.41
12.90
11.09
9.03
6.81
4.42
1.81
-1.09
-4.26
-7.56
-10.82
-13.88
-16.74
-19.66
-23.05
-27.24
-32.22
-37.53
-42.22
-45.26
-45.87
-43.79
-39.35
-33.28
-26.38
-19.32
-12.53
-6.26
-0.66
4.16
8.13
11.30
13.80
15.78
17.35
18.60
19.51
20.05
20.22
20.04
19.58
19.00
18.41
17.94
17.64
17.42
17.10
16.37
15.00
12.85
9.98
6.64
3.13
-0.27
-3.40
-6.35
-9.31
-12.55
-16.30
-20.64
-25.49
-30.50
-35.12
-38.64
-40.38
-39.89
-37.11
-32.49
-26.73
-20.62
-14.74
-9.36
-4.51
-0.12
3.87
7.46
10.67
13.50
16.02
18.31
20.40
22.24
23.78
24.94
25.64
25.83
25.50
24.71
23.58
22.19
20.68
19.08
17.34
15.37
13.10
10.59
7.96
5.41
3.09
1.02
-0.93
-3.05
-5.70
-9.12
-13.40
-18.29
-23.25
-27.55
-30.41
-31.25
-29.82
-26.27
-21.09
-15.06
-8.91
-3.30
1.41
5.13
7.98
10.19
12.05
13.75
15.42
17.07
18.69
20.20
21.53
22.60
23.40
23.95
24.29
24.46
24.50
24.40
24.07
23.40
22.22
20.39
17.88
14.79
11.35
7.88
4.64
1.69
-1.12
-4.13
-7.75
-12.16
-17.27
-22.59
-27.37
-30.82
-32.32
-31.60
-28.82
-24.46
-19.15
-13.56
-8.22
-3.50
0.43
3.54
5.92
7.75
9.23
10.49
11.59
12.49
13.08
13.29
13.06
12.44
11.51
10.38
9.17
7.89
6.52
4.95
3.05
0.78
-1.80
-4.52
-7.17
-9.61
-11.81
-13.91
-16.14
-18.76
-21.96
-25.77
-29.97
-34.06
-37.28
-38.87
-38.30
-35.48
-30.77
-24.85
-18.43
-12.01
-5.94
-0.34
4.64
8.91
12.41
15.19
17.41
19.23
20.70
21.74
22.20
22.02
21.32
20.44
19.71
19.28
19.12
18.95
18.46
17.43
15.88
13.98
12.02
10.24
8.71
7.31
5.81
3.92
1.39
-1.96
-6.22
-11.31
-16.95
-22.58
-27.47
-30.84
-32.11
-31.13
-28.15
-23.82
-18.85
-13.86
-9.24
-5.13
-1.53
1.58
4.19
6.24
7.75
8.75
9.37
9.75
9.96
10.04
9.91
9.56
9.04
8.48
8.08
7.94
8.00
8.01
7.60
6.46
4.47
1.80
-1.20
-4.09
-6.55
-8.47
-9.98
-11.46
-13.33
-15.94
-19.38
-23.38
-27.30
-30.32
-31.66
-30.85
-27.88
-23.18
-17.45
-11.41
-5.61
-0.30
4.47
8.76
12.58
15.85
18.45
20.24
21.22
21.52
21.40
21.20
21.15
21.35
21.72
22.04
22.07
21.60
20.56
19.00
17.00
14.66
12.06
9.31
6.47
3.67
0.92
-1.87
-4.86
-8.29
-12.31
-16.93
-21.91
-26.74
-30.71
-33.05
-33.17
-30.84
-26.33
-20.33
-13.74
-7.33
-1.64
3.15
7.10
10.32
12.93
15.04
16.76
18.16
19.27
20.07
20.47
20.39
19.83
18.87
17.67
16.38
15.11
13.88
12.64
11.26
9.57
7.40
4.71
1.53
-1.92
-5.37
-8.61
-11.55
-14.27
-17.00
-20.05
-23.67
-27.91
-32.48
-36.76
-39.95
-41.25
-40.20
-36.82
-31.60
-25.34
-18.85
-12.72
-7.21
-2.35
1.99
5.86
9.28
12.19
14.58
16.49
18.05
19.37
20.46
21.28
21.73
21.74
21.33
20.65
19.89
19.21
18.59
17.91
16.96
15.50
13.40
10.65
7.37
3.81
0.21
-3.22
-6.42
-9.51
-12.76
-16.41
-20.64
-25.35
-30.21
-34.65
-37.99
-39.61
-39.09
-36.38
-31.77
-25.84
-19.25
-12.65
-6.41
-0.67
4.56
9.33
13.59
17.20
20.03
22.05
23.34
24.05
24.33
24.25
23.83
23.13
22.26
21.38
20.62
19.99
19.38
18.58
17.40
15.77
13.71
11.29
8.63
5.79
2.90
0.08
-2.53
-4.89
-7.05
-9.31
-12.02
-15.54
-19.90
-24.79
-29.50
-33.10
-34.76
-33.98
-30.75
-25.50
-18.95
-11.87
-4.93
1.37
6.74
11.04
14.31
16.68
18.36
19.51
20.25
20.64
20.73
20.61
20.34
20.00
19.65
19.31
19.00
18.72
18.42
18.01
17.38
16.37
14.92
12.98
10.57
7.79
4.81
1.78
-1.17
-4.00
-6.82
-9.83
-13.29
-17.31
-21.76
-26.21
-29.95
-32.30
-32.61
-30.60
-26.37
-20.48
-13.75
-7.10
-1.22
3.51
7.06
9.66
11.56
12.95
13.91
14.48
14.66
14.49
14.00
13.21
12.21
11.17
10.28
9.76
9.73
10.10
10.64
10.98
10.81
9.93
8.32
6.15
3.76
1.39
-0.79
-2.88
-5.12
-7.85
-11.28
-15.46
-20.19
-25.06
-29.52
-32.90
-34.57
-34.09
-31.35
-26.59
-20.41
-13.50
-6.55
-0.05
5.66
10.35
13.87
16.17
17.36
17.70
17.56
17.23
16.90
16.59
16.18
15.53
14.61
13.44
12.15
10.94
9.98
9.31
8.86
8.36
7.48
5.93
3.59
0.56
-2.88
-6.41
-9.81
-13.01
-16.16
-19.48
-23.17
-27.33
-31.75
-35.99
-39.35
-41.11
-40.66
-37.85
-32.97
-26.70
-19.87
-13.17
-6.99
-1.42
3.60
8.06
11.87
14.89
17.04
18.37
19.08
19.47
19.72
19.90
19.98
19.85
19.44
18.75
17.84
16.91
16.10
15.45
14.89
14.18
13.00
11.11
8.50
5.35
2.08
-0.91
-3.40
-5.39
-7.10
-8.94
-11.36
-14.74
-19.18
-24.43
-29.80
-34.35
-37.11
-37.41
-35.11
-30.56
-24.46
-17.66
-10.81
-4.39
1.38
6.38
10.59
14.00
16.66
18.68
20.16
21.20
21.83
22.10
22.02
21.68
21.20
20.73
20.42
20.29
20.31
20.35
20.23
19.78
18.86
17.36
15.25
12.57
9.48
6.25
3.16
0.45
-1.79
-3.72
-5.68
-8.11
-11.37
-15.57
-20.44
-25.30
-29.26
-31.47
-31.38
-28.91
-24.47
-18.77
-12.62
-6.65
-1.28
3.32
7.12
10.13
12.37
13.88
14.70
14.97
14.90
14.71
14.62
14.70
14.95
15.23
15.40
15.37
15.16
14.85
14.50
14.09
13.51
12.57
11.11
9.05
6.44
3.45
0.33
-2.67
-5.40
-7.82
-10.03
-12.29
-14.91
-18.16
-22.06
-26.25
-30.08
-32.71
-33.44
-31.93
-28.29
-23.03
-16.79
-10.21
-3.78
2.16
7.40
11.73
15.04
17.27
18.51
18.92
18.75
18.22
17.55
16.85
16.23
15.69
15.24
14.87
14.56
14.30
14.01
13.64
13.07
12.17
10.82
8.95
6.51
3.61
0.39
-2.96
-6.24
-9.40
-12.51
-15.75
-19.39
-23.62
-28.42
-33.47
-38.18
-41.76
-43.48
-42.90
-39.95
-35.05
-28.84
-22.02
-15.19
-8.72
-2.82
2.42
6.93
10.73
13.85
16.41
18.52
20.24
21.52
22.32
22.56
22.30
21.71
21.02
20.41
19.99
19.72
19.48
19.10
18.42
17.26
15.55
13.24
10.36
7.12
3.79
0.62
-2.30
-4.99
-7.59
-10.31
-13.32
-16.80
-20.89
-25.62
-30.80
-35.86
-39.96
-42.19
-41.90
-38.95
-33.79
-27.21
-20.11
-13.17
-6.75
-0.95
4.24
8.82
12.72
15.84
18.16
19.78
20.93
21.90
22.89
23.93
24.86
25.46
25.60
25.32
24.78
24.21
23.74
23.30
22.75
21.90
20.64
18.89
16.64
13.89
10.70
7.24
3.76
0.50
-2.44
-5.10
-7.75
-10.72
-14.36
-18.85
-24.02
-29.41
-34.22
-37.54
-38.59
-36.97
-32.83
-26.77
-19.69
-12.43
-5.63
0.42
5.65
10.10
13.75
16.62
18.72
20.11
20.92
21.27
21.28
21.03
20.52
19.77
18.86
17.91
17.06
16.41
15.98
15.68
15.33
14.72
13.66
12.09
10.07
7.76
5.38
3.13
1.10
-0.78
-2.77
-5.25
-8.62
-13.04
-18.33
-23.89
-28.85
-32.27
-33.49
-32.29
-28.89
-23.85
-17.82
-11.41
-5.09
0.76
5.85
9.97
13.01
15.05
16.26
16.91
17.24
17.41
17.43
17.29
16.97
16.49
15.91
15.31
14.74
14.20
13.67
13.10
12.37
11.28
9.58
7.10
3.85
0.04
-3.95
-7.70
-10.97
-13.76
-16.32
-19.03
-22.25
-26.14
-30.66
-35.45
-39.93
-43.29
-44.80
-43.96
-40.70
-35.43
-28.88
-21.85
-15.00
-8.71
-3.12
1.80
6.11
9.85
13.06
15.79
18.08
19.98
21.50
22.60
23.21
23.31
22.89
22.03
20.87
19.58
18.33
17.22
16.25
15.30
14.22
12.79
10.87
8.43
5.52
2.31
-1.00
-4.23
-7.31
-10.29
-13.39
-16.92
-21.10
-25.96
-31.16
-36.00
-39.61
-41.18
-40.26
-36.95
-31.70
-25.22
-18.19
-11.15
-4.49
1.53
6.67
10.82
13.97
16.30
18.07
19.58
20.98
22.31
23.44
24.28
24.74
24.85
24.65
24.23
23.67
23.01
22.22
21.22
19.86
17.98
15.46
12.31
8.66
4.82
1.14
-2.11
-4.84
-7.25
-9.71
-12.66
-16.46
-21.19
-26.58
-32.02
-36.64
-39.52
-39.97
-37.65
-32.81
-26.14
-18.66
-11.33
-4.87
0.48
4.81
8.40
11.50
14.22
16.57
18.51
20.02
21.10
21.79
22.13
22.15
21.92
21.51
21.01
20.46
19.82
18.94
17.71
15.97
13.67
10.88
7.75
4.47
1.27
-1.75
-4.51
-7.08
-9.66
-12.45
-15.67
-19.34
-23.31
-27.13
-30.19
-31.78
-31.40
-28.89
-24.52
-18.89
-12.71
-6.60
-0.93
4.14
8.51
12.18
15.12
17.39
19.15
20.53
21.60
22.29
22.46
22.01
21.00
19.70
18.45
17.46
16.79
16.25
15.57
14.47
12.83
10.67
8.14
5.42
2.66
-0.09
-2.85
-5.75
-8.97
-12.66
-16.94
-21.76
-26.92
-31.98
-36.30
-39.16
-39.97
-38.45
-34.73
-29.33
-22.91
-16.19
-9.65
-3.59
1.84
6.60
10.66
14.03
16.67
18.61
19.91
20.62
20.82
20.57
19.91
18.85
17.46
15.83
14.09
12.38
10.78
9.28
7.78
6.14
4.24
2.06
-0.35
-2.86
-5.39
-7.88
-10.41
-13.13
-16.22
-19.90
-24.21
-28.99
-33.76
-37.84
-40.44
-40.89
-38.89
-34.61
-28.65
-21.84
-14.99
-8.64
-2.96
2.12
6.73
10.92
14.58
17.53
19.62
20.85
21.38
21.43
21.24
20.96
20.69
20.45
20.22
19.95
19.58
18.97
18.02
16.60
14.67
12.27
9.49
6.50
3.44
0.41
-2.60
-5.75
-9.29
-13.48
-18.37
-23.64
-28.65
-32.45
-34.14
-33.18
-29.55
-23.72
-16.53
-8.87
-1.41
5.39
11.36
16.41
20.45
23.40
25.26
26.15
26.26
25.88
25.23
24.43
23.47
22.32
20.95
19.41
17.74
16.07
14.41
12.76
11.09
9.33
7.44
5.37
3.14
0.70
-1.97
-4.88
-8.09
-11.63
-15.50
-19.55
-23.45
-26.66
-28.47
-28.32
-25.94
-21.56
-15.87
-9.76
-4.03
0.92
5.10
8.79
12.20
15.36
18.06
19.98
20.98
21.10
20.66
20.02
19.49
19.17
19.03
18.97
18.87
18.59
18.00
16.94
15.26
12.88
9.91
6.57
3.17
-0.07
-3.00
-5.65
-8.19
-10.85
-13.90
-17.52
-21.72
-26.26
-30.62
-33.98
-35.55
-34.69
-31.20
-25.42
-18.14
-10.39
-3.13
2.97
7.67
11.08
13.48
15.15
16.28
16.88
16.95
16.50
15.63
14.50
13.38
12.48
11.93
11.74
11.78
11.84
11.65
11.00
9.82
8.13
6.08
3.89
1.71
-0.32
-2.16
-3.91
-5.73
-7.86
-10.54
-13.94
-18.08
-22.67
-27.18
-30.82
-32.72
-32.26
-29.25
-24.06
-17.50
-10.61
-4.27
0.92
4.82
7.56
9.41
10.61
11.32
11.65
11.66
11.42
11.03
10.59
10.20
9.97
9.93
10.05
10.24
10.30
10.06
9.44
8.44
7.11
5.51
3.68
1.63
-0.60
-2.96
-5.39
-7.94
-10.78
-14.17
-18.24
-22.79
-27.22
-30.60
-31.96
-30.60
-26.46
-20.08
-12.47
-4.77
2.11
7.66
11.82
14.80
16.90
18.31
19.12
19.40
19.26
18.94
18.68
18.58
18.61
18.54
18.13
17.25
16.00
14.57
13.15
11.76
10.31
8.58
6.45
3.94
1.17
-1.73
-4.77
-8.17
-12.19
-17.00
-22.42
-27.84
-32.39
-35.18
-35.61
-33.57
-29.41
-23.80
-17.44
-10.91
-4.61
1.22
6.43
10.92
14.65
17.61
19.83
21.38
22.28
22.58
22.38
21.79
20.96
20.02
19.05
18.00
16.80
15.45
14.00
12.53
11.09
9.58
7.77
5.48
2.68
-0.46
-3.61
-6.51
-9.12
-11.69
-14.69
-18.51
-23.27
-28.62
-33.76
-37.73
-39.61
-38.90
-35.67
-30.44
-24.10
-17.47
-11.19
-5.54
-0.52
3.94
7.88
11.25
13.96
16.04
17.63
18.93
20.10
21.15
21.99
22.45
22.44
21.97
21.14
20.06
18.76
17.27
15.59
13.74
11.78
9.71
7.52
5.10
2.37
-0.65
-3.80
-6.85
-9.63
-12.10
-14.48
-17.13
-20.44
-24.52
-29.11
-33.55
-36.90
-38.26
-37.02
-33.11
-27.01
-19.56
-11.77
-4.44
1.93
7.18
11.40
14.78
17.46
19.49
20.89
21.63
21.79
21.52
21.08
20.68
20.46
20.41
20.33
20.05
19.41
18.44
17.31
16.24
15.30
14.42
13.34
11.76
9.52
6.69
3.50
0.26
-2.81
-5.63
-8.24
-10.77
-13.33
-16.06
-19.08
-22.48
-26.25
-30.16
-33.70
-36.16
-36.81
-35.19
-31.23
-25.37
-18.43
-11.28
-4.68
0.95
5.51
9.10
11.89
13.97
15.34
16.08
16.30
16.31
16.37
16.64
17.10
17.61
18.00
18.17
18.16
18.05
17.94
17.77
17.37
16.57
15.25
13.44
11.22
8.73
6.09
3.39
0.75
-1.73
-3.95
-5.89
-7.69
-9.62
-12.07
-15.35
-19.50
-24.15
-28.51
-31.61
-32.56
-30.91
-26.77
-20.78
-13.88
-7.01
-0.84
4.30
8.36
11.42
13.55
14.78
15.19
14.89
14.20
13.52
13.15
13.16
13.36
13.40
13.01
12.17
11.11
10.19
9.64
9.48
9.46
9.22
8.45
7.03
5.01
2.60
0.05
-2.45
-4.86
-7.23
-9.80
-12.83
-16.59
-21.13
-26.21
-31.23
-35.33
-37.65
-37.55
-34.85
-29.90
-23.47
-16.46
-9.64
-3.60
1.42
5.37
8.36
10.58
12.24
13.49
14.47
15.23
15.79
16.15
16.31
16.30
16.10
15.71
15.15
14.40
13.50
12.42
11.10
9.45
7.37
4.82
1.95
-1.06
-3.93
-6.51
-8.73
-10.69
-12.63
-14.84
-17.72
-21.53
-26.34
-31.81
-37.20
-41.54
-43.90
-43.72
-40.97
-36.10
-29.86
-23.04
-16.24
-9.83
-3.94
1.32
5.91
9.74
12.74
14.91
16.34
17.22
17.72
18.05
18.26
18.36
18.27
17.97
17.54
17.16
17.01
17.16
17.54
17.88
17.83
17.04
15.28
12.57
9.18
5.48
1.88
-1.38
-4.28
-7.03
-9.96
-13.40
-17.57
-22.45
-27.72
-32.81
-36.97
-39.45
-39.68
-37.45
-33.00
-26.98
-20.18
-13.37
-7.07
-1.52
3.24
7.28
10.66
13.37
15.40
16.77
17.55
17.93
18.12
18.26
18.41
18.55
18.60
18.50
18.24
17.86
17.39
16.88
16.25
15.33
13.94
11.92
9.27
6.15
2.89
-0.18
-2.81
-5.00
-6.92
-8.90
-11.30
-14.40
-18.29
-22.86
-27.69
-32.11
-35.23
-36.20
-34.48
-30.03
-23.42
-15.63
-7.76
-0.70
5.13
9.69
13.18
15.80
17.66
18.81
19.29
19.27
18.98
18.67
18.48
18.40
18.28
17.97
17.40
16.62
15.80
15.13
14.66
14.31
13.75
12.62
10.59
7.59
3.89
-0.01
-3.55
-6.38
-8.45
-10.05
-11.71
-13.92
-17.02
-21.08
-25.82
-30.67
-34.82
-37.41
-37.68
-35.27
-30.30
-23.41
-15.55
-7.70
-0.60
5.37
10.17
13.97
16.95
19.24
20.93
22.06
22.72
23.07
23.26
23.34
23.24
22.82
21.95
20.64
19.06
17.53
16.27
15.34
14.51
13.44
11.73
9.20
5.89
2.11
-1.71
-5.22
-8.26
-10.93
-13.52
-16.45
-20.05
-24.47
-29.51
-34.72
-39.34
-42.59
-43.75
-42.46
-38.72
-32.95
-25.84
-18.16
-10.61
-3.65
2.53
7.91
12.57
16.49
19.64
21.89
23.17
23.57
23.34
22.83
22.34
22.07
22.00
21.97
21.76
21.25
20.47
19.54
18.63
17.79
16.96
15.90
14.35
12.13
9.25
5.94
2.54
-0.67
-3.57
-6.24
-8.90
-11.82
-15.17
-19.01
-23.29
-27.88
-32.51
-36.74
-39.98
-41.57
-40.91
-37.80
-32.45
-25.49
-17.78
-10.16
-3.29
2.53
7.33
11.32
14.74
17.76
20.36
22.42
23.82
24.54
24.69
24.46
24.08
23.69
23.40
23.27
23.32
23.53
23.78
23.89
23.65
22.92
21.73
20.19
18.45
16.57
14.56
12.34
9.89
7.17
4.24
1.21
-1.85
-4.83
-7.68
-10.42
-13.19
-16.22
-19.78
-24.03
-28.84
-33.73
-37.85
-40.35
-40.50
-38.03
-33.16
-26.53
-18.94
-11.20
-3.90
2.60
8.13
12.66
16.18
18.76
20.53
21.66
22.32
22.63
22.74
22.71
22.66
22.69
22.85
23.12
23.37
23.50
23.40
23.10
22.65
22.04
21.16
19.78
17.72
14.90
11.42
7.61
3.81
0.34
-2.67
-5.25
-7.57
-9.83
-12.25
-15.00
-18.22
-21.90
-25.92
-29.86
-33.09
-34.83
-34.45
-31.69
-26.83
-20.57
-13.80
-7.28
-1.47
3.52
7.71
11.11
13.69
15.41
16.35
16.74
16.91
17.14
17.52
18.02
18.53
18.92
19.22
19.44
19.64
19.81
19.87
19.70
19.18
18.20
16.74
14.79
12.44
9.80
7.01
4.19
1.39
-1.36
-4.12
-6.99
-10.08
-13.54
-17.50
-21.92
-26.54
-30.84
-34.05
-35.44
-34.53
-31.32
-26.29
-20.25
-14.01
-8.22
-3.18
1.09
4.69
7.73
10.23
12.18
13.53
14.33
14.67
14.70
14.62
14.56
14.61
14.81
15.09
15.34
15.45
15.28
14.75
13.90
12.75
11.36
9.72
7.78
5.41
2.58
-0.61
-3.94
-7.10
-9.87
-12.22
-14.33
-16.49
-18.99
-22.01
-25.64
-29.78
-34.20
-38.48
-42.02
-44.10
-44.11
-41.73
-37.14
-30.96
-24.03
-17.10
-10.68
-5.00
-0.08
4.09
7.55
10.32
12.47
14.13
15.43
16.54
17.57
18.60
19.69
20.78
21.80
22.55
22.92
22.87
22.45
21.83
21.08
20.13
18.78
16.80
14.09
10.77
7.14
3.52
0.17
-2.87
-5.68
-8.40
-11.17
-14.12
-17.36
-21.00
-25.01
-29.17
-32.93
-35.55
-36.32
-34.81
-31.13
-25.80
-19.61
-13.26
-7.28
-1.91
2.72
6.53
9.51
11.73
13.39
14.75
16.00
17.13
17.95
18.23
17.86
16.93
15.70
14.45
13.41
12.63
12.07
11.59
11.04
10.32
9.32
7.98
6.25
4.10
1.56
-1.24
-4.12
-6.98
-9.77
-12.66
-15.93
-19.76
-24.01
-28.11
-31.16
-32.19
-30.62
-26.43
-20.24
-13.00
-5.71
0.87
6.34
10.66
13.94
16.37
18.11
19.26
19.92
20.19
20.17
20.00
19.76
19.52
19.25
18.90
18.46
17.89
17.25
16.49
15.47
13.99
11.83
8.91
5.35
1.49
-2.34
-5.87
-9.03
-11.94
-14.90
-18.15
-21.79
-25.55
-28.91
-31.12
-31.51
-29.68
-25.70
-20.09
-13.71
-7.41
-1.81
2.81
6.49
9.45
11.87
13.82
15.26
16.11
16.41
16.37
16.25
16.34
16.76
17.47
18.24
18.81
18.98
18.66
17.90
16.80
15.49
14.08
12.62
11.01
9.04
6.44
2.93
-1.60
-7.07
-13.21
-19.49
-25.23
-29.62
-31.89
-31.47
-28.27
-22.78
-16.02
-9.26
-3.57
0.49
3.00
4.51
5.69
6.99
8.51
10.06
11.32
11.99
11.92
11.08
9.58
7.60
5.41
3.27
1.42
-0.08
-1.28
-2.35
-3.46
-4.70
-6.09
-7.66
-9.40
-11.36
-13.56
-16.02
-18.73
-21.73
-25.04
-28.54
-31.91
-34.51
-35.62
-34.62
-31.31
-26.03
-19.53
-12.65
-6.08
-0.16
5.04
9.53
13.22
15.94
17.58
18.11
17.83
17.17
16.53
16.16
16.07
16.09
16.02
15.78
15.37
14.80
14.04
12.93
11.32
9.19
6.68
4.07
1.59
-0.76
-3.18
-6.07
-9.68
-14.11
-19.12
-24.27
-28.93
-32.50
-34.39
-34.12
-31.50
-26.63
-20.02
-12.49
-4.97
1.78
7.32
11.63
14.97
17.67
20.00
22.06
23.73
24.85
25.23
24.87
23.85
22.43
20.91
19.55
18.46
17.61
16.83
15.92
14.69
13.04
10.91
8.32
5.37
2.22
-0.91
-3.83
-6.47
-8.99
-11.72
-15.03
-19.15
-23.91
-28.73
-32.72
-34.93
-34.68
-31.75
-26.48
-19.59
-11.97
-4.44
2.39
8.22
12.90
16.46
19.00
20.67
21.68
22.23
22.45
22.38
21.99
21.22
20.08
18.69
17.19
15.75
14.43
13.21
11.93
10.38
8.36
5.79
2.74
-0.55
-3.78
-6.71
-9.32
-11.76
-14.30
-17.22
-20.71
-24.81
-29.46
-34.37
-39.02
-42.69
-44.56
-44.03
-40.94
-35.62
-28.89
-21.63
-14.51
-7.92
-1.90
3.68
8.89
13.75
18.18
22.03
25.16
27.48
28.95
29.61
29.58
29.01
28.09
26.98
25.75
24.50
23.28
22.14
21.12
20.14
19.06
17.71
15.96
13.74
11.06
8.04
4.77
1.34
-2.22
-5.91
-9.72
-13.59
-17.44
-21.25
-25.04
-28.90
-32.86
-36.72
-40.04
-42.21
-42.56
-40.66
-36.47
-30.39
-23.10
-15.31
-7.64
-0.48
5.95
11.59
16.45
20.53
23.88
26.55
28.66
30.31
31.61
32.69
33.67
34.68
35.76
36.91
38.05
39.05
39.82
40.34
40.69
41.06
41.54
42.15
42.82
43.40
43.80
44.03
44.20
44.48
45.02
45.89
47.08
48.50
50.00
51.41
52.66
53.75
54.86
56.28
58.32
61.21
65.00
69.44
74.01
78.02
80.70
81.45
80.02
76.57
71.73
66.32
61.06
56.35
52.28
48.71
45.58
42.93
40.87
39.41
38.23
36.82
34.62
31.30
26.94
21.96
16.93
12.35
8.44
5.14
2.11
-1.20
-5.34
-10.74
-17.55
-25.43
-33.68
-41.47
-48.08
-53.17
-56.80
-59.32
-61.26
-63.19
-65.62
-68.93
-73.13
-77.77
-81.82
-83.88
-82.65
-77.56
-69.02
-58.45
-47.73
-38.52
-31.85
-28.02
-26.85
-27.96
-30.85
-34.79
-38.70
-41.24
-41.23
-38.12
-32.39
-25.36
-18.81
-14.21
-12.27
-12.84
-15.09
-17.94
-20.45
-22.15
-23.16
-24.14
-25.91
-29.08
-33.79
-39.61
-45.91
-52.17
-58.20
-64.04
-69.64
-74.64
-78.33
-80.02
-79.39
-76.77
-73.01
-69.17
-66.07
-64.05
-62.97
-62.21
-60.84
-57.73
-51.71
-41.98
-28.34
-11.62
6.42
23.50
37.64
47.77
54.22
58.34
61.82
65.88
70.97
76.96
83.59
90.44
96.66
100.61
100.02
92.86
78.65
59.19
38.18
19.64
6.20
-1.93
-6.69
-10.64
-15.57
-21.71
-28.04
-33.29
-36.70
-38.23
-38.32
-37.36
-35.55
-32.99
-29.76
-26.16
-22.70
-19.95
-18.38
-18.16
-19.13
-20.83
-22.64
-24.13
-25.10
-25.72
-26.31
-27.07
-28.00
-28.82
-29.13
-28.74
-27.81
-26.84
-26.65
-27.88
-30.66
-34.21
-36.95
-36.87
-32.51
-23.80
-12.36
-0.98
7.67
12.43
14.27
15.87
20.41
30.11
45.32
64.58
85.13
103.74
117.09
122.29
117.52
102.97
81.72
59.62
43.95
40.88
52.83
77.22
107.12
133.86
150.14
152.52
142.05
123.12
101.27
81.15
65.30
53.87
45.21
36.72
25.87
10.88
-8.57
-31.40
-55.29
-77.38
-95.12
-106.82
-111.93
-111.11
-106.22
-99.92
-94.77
-91.90
-89.83
-84.55
-71.08
-45.89
-9.31
34.00
76.56
111.09
133.18
142.55
142.18
136.33
128.33
119.56
109.55
97.07
81.11
61.48
38.97
15.09
-8.36
-29.93
-48.80
-64.97
-78.83
-90.82
-101.07
-109.30
-115.07
-117.96
-117.80
-114.75
-109.39
-102.77
-96.64
-93.51
-96.61
-108.91
-131.57
-162.26
-194.74
-220.08
-229.81
-219.27
-189.58
-147.18
-100.88
-58.05
-21.98
8.37
36.02
63.09
88.70
109.33
120.95
121.46
111.91
96.03
78.41
62.64
50.28
41.04
33.78
27.62
22.55
19.14
17.86
18.40
19.45
18.97
15.00
6.42
-6.52
-21.99
-37.16
-49.33
-57.12
-61.12
-63.70
-67.88
-75.82
-87.84
-102.17
-115.33
-123.35
-122.91
-112.34
-92.34
-65.96
-37.85
-12.84
5.61
16.57
21.82
24.76
28.65
34.87
42.42
48.93
52.30
52.36
51.11
51.98
58.18
71.17
89.75
110.35
128.10
138.37
138.20
127.02
106.47
79.55
49.38
18.31
-12.29
-41.71
-69.25
-93.94
-114.52
-130.25
-141.57
-150.38
-159.97
-174.55
-198.57
-235.88
-288.02
-352.62
-422.76
-487.92
-537.07
-562.37
-561.92
-540.08
-505.06
-465.18
-426.00
-389.40
-354.86
-321.58
-289.92
-261.36
-237.28
-217.62
-200.58
-183.45
-164.06
-141.83
-117.96
-94.86
-74.85
-59.17
-47.45
-38.08
-29.02
-18.71
-6.74
6.17
18.56
29.01
36.64
41.49
44.18
45.57
46.30
46.56
46.12
44.62
41.93
38.32
34.45
31.19
29.35
29.48
31.80
36.35
43.03
51.73
62.29
74.41
87.47
100.68
113.10
123.98
132.96
140.18
146.18
151.64
157.15
162.93
168.97
175.11
181.33
187.87
195.18
203.83
214.39
227.49
243.62
262.90
284.53
306.41
325.25
337.27
339.55
331.09
313.34
289.56
263.58
238.34
215.23
194.20
174.57
155.84
137.99
121.29
105.88
91.45
77.46
63.63
50.26
38.31
29.07
23.48
21.69
22.89
25.72
28.79
31.27
33.07
34.63
36.48
38.77
41.12
42.77
42.98
41.46
38.49
34.78
31.14
28.16
26.02
24.55
23.38
22.14
20.64
18.83
16.81
14.71
12.57
10.38
7.99
5.25
1.89
-2.28
-7.33
-13.14
-19.27
-25.00
-29.41
-31.57
-30.84
-27.07
-20.68
-12.60
-3.92
4.37
11.62
17.57
22.20
25.59
27.79
28.76
28.57
27.41
25.66
23.75
22.04
20.69
19.61
18.60
17.43
16.01
14.37
12.73
11.27
10.10
9.21
8.40
7.33
5.61
2.88
-1.10
-6.34
-12.56
-19.21
-25.42
-30.17
-32.54
-31.96
-28.38
-22.34
-14.76
-6.59
1.36
8.70
15.31
21.17
26.29
30.49
33.54
35.22
35.54
34.73
33.20
31.40
29.68
28.23
27.02
25.88
24.63
23.13
21.32
19.20
16.79
14.10
11.15
7.86
4.18
-0.04
-4.96
-10.66
-17.09
-23.91
-30.51
-36.01
-39.52
-40.30
-38.01
-32.82
-25.33
-16.43
-7.10
1.89
9.93
16.76
22.30
26.65
29.94
32.30
33.84
34.60
34.65
34.08
33.02
31.66
30.19
28.84
27.90
27.56
27.88
28.62
29.29
29.25
28.01
25.42
21.75
17.54
13.31
9.33
5.53
1.64
-2.71
-7.71
-13.42
-19.64
-25.93
-31.61
-35.80
-37.58
-36.35
-31.99
-25.00
-16.35
-7.15
1.66
9.47
16.05
21.46
25.85
29.37
32.13
34.20
35.60
36.35
36.54
36.30
35.88
35.46
35.20
35.08
34.99
34.78
34.35
33.70
32.89
31.94
30.78
29.17
26.91
23.83
19.97
15.52
10.82
6.18
1.83
-2.15
-5.75
-9.07
-12.25
-15.48
-19.00
-23.00
-27.48
-32.16
-36.36
-39.22
-39.91
-37.98
-33.55
-27.25
-19.96
-12.57
-5.74
0.23
5.28
9.50
13.05
16.04
18.58
20.76
22.61
24.18
25.49
26.60
27.54
28.37
29.08
29.58
29.81
29.68
29.17
28.30
27.13
25.72
24.12
22.37
20.47
18.38
16.00
13.26
10.15
6.77
3.32
0.06
-2.87
-5.39
-7.61
-9.75
-12.11
-15.00
-18.63
-22.99
-27.77
-32.31
-35.73
-37.15
-36.05
-32.39
-26.66
-19.73
-12.53
-5.89
-0.29
4.14
7.55
10.25
12.52
14.53
16.21
17.42
18.05
18.15
17.93
17.64
17.46
17.37
17.22
16.84
16.19
15.33
14.44
13.62
12.90
12.17
11.24
9.95
8.17
5.90
3.21
0.30
-2.62
-5.33
-7.69
-9.70
-11.50
-13.31
-15.35
-17.83
-20.84
-24.33
-27.99
-31.30
-33.58
-34.14
-32.53
-28.71
-23.08
-16.39
-9.47
-3.01
2.56
7.09
10.60
13.21
14.98
16.02
16.45
16.43
16.03
15.39
14.56
13.66
12.81
12.14
11.76
11.63
11.66
11.65
11.45
11.00
10.35
9.50
8.48
7.24
5.76
4.07
2.23
0.32
-1.65
-3.70
-5.87
-8.11
-10.33
-12.42
-14.34
-16.23
-18.31
-20.80
-23.81
-27.19
-30.56
-33.37
-35.03
-35.08
-33.33
-29.91
-25.23
-19.87
-14.37
-9.08
-4.19
0.30
4.38
7.92
10.79
12.87
14.13
14.71
14.86
14.78
14.62
14.36
13.99
13.53
13.03
12.59
12.25
11.97
11.64
11.11
10.29
9.14
7.72
6.10
4.39
2.66
0.97
-0.66
-2.24
-3.80
-5.37
-6.93
-8.43
-9.84
-11.17
-12.54
-14.12
-16.09
-18.55
-21.47
-24.60
-27.56
-29.77
-30.65
-29.73
-26.83
-22.19
-16.41
-10.31
-4.71
-0.10
3.38
5.90
7.77
9.26
10.46
11.41
12.10
12.55
12.87
13.16
13.46
13.79
14.10
14.38
14.61
14.75
14.79
14.63
14.22
13.50
12.44
11.10
9.52
7.78
5.96
4.10
2.23
0.33
-1.68
-3.89
-6.37
-9.06
-11.76
-14.23
-16.27
-17.78
-18.89
-19.91
-21.21
-23.07
-25.52
-28.24
-30.64
-31.97
-31.62
-29.29
-25.14
-19.72
-13.81
-8.14
-3.23
0.69
3.65
5.83
7.42
8.56
9.31
9.65
9.58
9.15
8.50
7.84
7.38
7.24
7.42
7.84
8.33
8.79
9.16
9.40
9.43
9.21
8.66
7.78
6.62
5.25
3.73
2.06
0.16
-1.95
-4.24
-6.55
-8.71
-10.62
-12.26
-13.76
-15.29
-17.01
-19.10
-21.61
-24.45
-27.31
-29.68
-30.93
-30.50
-28.09
-23.90
-18.52
-12.74
-7.35
-2.83
0.72
3.43
5.59
7.37
8.86
10.04
10.83
11.27
11.43
11.37
11.15
10.74
10.08
9.18
8.08
6.94
5.93
5.17
4.69
4.42
4.19
3.81
3.16
2.16
0.84
-0.76
-2.53
-4.37
-6.22
-8.01
-9.79
-11.64
-13.70
-16.07
-18.64
-21.15
-23.11
-24.03
-23.54
-21.59
-18.41
-14.51
-10.41
-6.52
-3.10
-0.16
2.38
4.65
6.70
8.53
10.04
11.11
11.67
11.73
11.38
10.77
10.06
9.38
8.79
8.32
7.94
7.58
7.12
6.38
5.22
3.54
1.33
-1.20
-3.76
-6.04
-7.86
-9.27
-10.61
-12.29
-14.68
-17.79
-21.26
-24.42
-26.47
-26.82
-25.24
-21.91
-17.31
-12.08
-6.79
-1.84
2.49
6.11
8.98
11.10
12.46
13.12
13.19
12.82
12.26
11.71
11.33
11.15
11.15
11.20
11.17
10.96
10.49
9.79
8.85
7.69
6.28
4.62
2.74
0.65
-1.64
-4.19
-7.06
-10.35
-13.94
-17.54
-20.59
-22.48
-22.74
-21.23
-18.26
-14.46
-10.54
-7.05
-4.18
-1.82
0.24
2.18
3.90
5.12
5.52
4.92
3.44
1.44
-0.60
-2.28
-3.38
-3.94
-4.15
-4.29
-4.63
-5.24
-6.11
-7.10
-8.13
-9.18
-10.40
-12.00
-14.20
-17.07
-20.49
-24.15
-27.62
-30.43
-32.12
-32.40
-31.12
-28.33
-24.20
-19.00
-13.01
-6.56
-0.03
6.15
11.53
15.72
18.52
19.96
20.26
19.76
18.75
17.51
16.19
14.93
13.82
12.87
12.11
11.53
11.08
10.69
10.18
9.33
7.88
5.70
2.86
-0.43
-3.86
-7.17
-10.24
-13.17
-16.17
-19.58
-23.64
-28.35
-33.36
-37.97
-41.33
-42.63
-41.42
-37.75
-32.14
-25.33
-18.05
-10.91
-4.24
1.80
7.13
11.68
15.47
18.47
20.77
22.46
23.61
24.30
24.55
24.39
23.85
23.07
22.27
21.69
21.49
21.63
21.90
21.94
21.41
20.12
18.04
15.27
12.02
8.52
4.95
1.48
-1.79
-4.89
-7.95
-11.23
-15.02
-19.41
-24.22
-28.95
-32.82
-35.07
-35.09
-32.68
-28.10
-22.05
-15.37
-8.89
-3.14
1.70
5.83
9.55
13.12
16.58
19.78
22.49
24.50
25.78
26.44
26.70
26.70
26.53
26.17
25.58
24.82
24.00
23.26
22.68
22.20
21.63
20.74
19.33
17.38
15.01
12.41
9.79
7.26
4.85
2.44
-0.05
-2.75
-5.74
-9.15
-13.00
-17.19
-21.33
-24.84
-26.99
-27.20
-25.25
-21.34
-16.04
-10.05
-3.97
1.82
7.16
12.04
16.41
20.16
23.10
25.10
26.16
26.46
26.29
25.97
25.77
25.81
26.07
26.40
26.67
26.77
26.68
26.44
26.10
25.61
24.81
23.54
21.65
19.14
16.17
12.97
9.75
6.63
3.67
0.85
-1.77
-4.18
-6.39
-8.50
-10.74
-13.38
-16.56
-20.18
-23.82
-26.77
-28.31
-27.89
-25.36
-21.04
-15.53
-9.55
-3.69
1.72
6.55
10.69
14.07
16.53
17.99
18.51
18.32
17.81
17.31
17.04
16.99
17.02
16.97
16.71
16.20
15.45
14.56
13.55
12.48
11.35
10.16
8.86
7.37
5.62
3.59
1.36
-0.87
-2.92
-4.64
-6.05
-7.31
-8.66
-10.31
-12.39
-14.87
-17.64
-20.45
-22.99
-24.85
-25.62
-24.94
-22.67
-18.97
-14.28
-9.20
-4.28
0.13
3.93
7.20
10.04
12.44
14.29
15.43
15.81
15.57
15.02
14.48
14.15
14.04
13.98
13.78
13.31
12.63
11.85
11.16
10.58
10.05
9.39
8.47
7.26
5.81
4.31
2.89
1.60
0.40
-0.78
-2.00
-3.25
-4.49
-5.70
-6.98
-8.54
-10.60
-13.24
-16.20
-18.90
-20.61
-20.71
-18.95
-15.57
-11.18
-6.49
-2.01
1.98
5.47
8.43
10.80
12.34
12.92
12.59
11.67
10.61
9.77
9.28
9.01
8.69
8.10
7.18
6.05
4.88
3.79
2.87
2.11
1.51
1.10
0.85
0.68
0.45
-0.02
-0.82
-2.01
-3.50
-5.18
-6.98
-8.89
-10.99
-13.36
-16.09
-19.20
-22.57
-25.93
-28.90
-30.95
-31.64
-30.65
-28.04
-24.13
-19.46
-14.60
-10.03
-6.00
-2.59
0.21
2.43
4.07
5.15
5.74
5.98
6.05
6.05
6.07
6.14
6.25
6.42
6.65
6.91
7.16
7.32
7.33
7.15
6.72
5.97
4.85
3.32
1.46
-0.60
-2.63
-4.46
-5.97
-7.20
-8.30
-9.52
-11.13
-13.31
-16.10
-19.28
-22.38
-24.75
-25.79
-25.08
-22.53
-18.48
-13.48
-8.19
-3.14
1.26
4.82
7.48
9.31
10.44
11.07
11.44
11.71
11.99
12.27
12.43
12.37
12.04
11.48
10.86
10.40
10.27
10.54
11.13
11.80
12.28
12.27
11.68
10.60
9.39
8.47
8.18
8.65
9.62
10.68
11.34
11.28
10.46
9.10
7.67
6.69
6.81
8.61
12.54
18.76
27.00
36.48
46.14
54.91
62.10
67.50
71.42
74.38
76.81
78.82
80.22
80.67
79.84
77.57
73.99
69.49
64.68
60.33
57.15
55.57
55.58
56.57
57.56
57.36
54.92
49.66
41.56
31.07
19.01
6.27
-6.29
-17.93
-28.06
-36.17
-41.90
-45.15
-46.10
-45.28
-43.41
-41.18
-39.14
-37.65
-36.97
-37.35
-38.87
-41.14
-43.13
-43.40
-40.75
-34.98
-27.36
-20.30
-16.45
-17.51
-23.51
-32.91
-43.50
-53.36
-61.58
-68.10
-73.15
-76.61
-77.79
-75.86
-70.57
-62.66
-53.84
-46.15
-41.12
-39.18
-39.62
-41.16
-42.69
-43.81
-44.84
-46.35
-48.59
-51.13
-53.03
-53.28
-51.44
-47.90
-43.79
-40.54
-39.22
-40.20
-43.04
-46.70
-50.06
-52.28
-53.06
-52.64
-51.66
-50.83
-50.78
-51.81
-53.78
-56.06
-57.50
-56.55
-51.65
-41.75
-26.80
-7.95
12.54
31.96
47.79
58.51
63.93
65.20
64.36
63.66
64.75
68.26
73.60
79.34
83.74
85.44
83.87
79.34
72.82
65.58
58.83
53.39
49.56
47.02
44.98
42.43
38.59
33.18
26.68
20.04
14.37
10.47
8.54
8.22
8.85
9.66
10.05
9.71
8.77
7.79
7.39
7.93
8.94
8.83
5.20
-4.28
-20.59
-42.32
-65.74
-85.99
-98.90
-102.64
-98.29
-89.11
-78.87
-70.29
-64.26
-60.09
-56.33
-51.52
-44.67
-35.19
-22.82
-7.65
9.57
27.23
43.08
54.86
61.05
61.49
57.44
51.12
44.80
39.93
36.68
34.20
31.28
27.24
22.43
18.12
15.71
15.61
16.79
16.96
13.70
5.71
-6.38
-20.17
-32.60
-41.27
-45.43
-46.18
-45.85
-47.13
-52.25
-62.48
-77.79
-96.62
-115.63
-129.88
-133.99
-124.00
-99.49
-64.54
-26.73
5.60
26.78
36.13
37.74
37.91
41.49
49.32
58.14
63.03
60.70
51.54
39.34
28.87
23.03
21.41
20.81
17.63
10.08
-0.65
-11.20
-17.94
-18.98
-15.04
-8.73
-3.17
-0.41
-0.72
-2.81
-4.70
-4.90
-3.12
-0.32
1.92
2.26
0.33
-3.21
-6.99
-9.67
-10.56
-9.84
-8.34
-7.07
-6.70
-7.32
-8.52
-9.59
-9.96
-9.44
-8.27
-7.02
-6.32
-6.62
-8.06
-10.49
-13.62
-17.12
-20.67
-23.94
-26.52
-28.00
-28.06
-26.60
-23.78
-20.03
-15.84
-11.70
-7.88
-4.51
-1.62
0.65
2.12
2.58
1.91
0.21
-2.21
-4.89
-7.49
-9.83
-11.96
-14.11
-16.44
-19.04
-21.85
-24.72
-27.55
-30.38
-33.34
-36.63
-40.29
-44.16
-47.92
-51.14
-53.40
-54.39
-53.80
-51.29
-46.44
-38.86
-28.40
-15.35
-0.47
15.18
30.52
44.76
57.51
68.79
78.75
87.61
95.51
102.54
108.75
114.12
118.48
121.46
122.42
120.59
115.30
106.26
93.78
78.86
62.91
47.39
33.38
21.25
10.75
1.28
-7.76
-16.62
-25.15
-32.99
-39.76
-45.13
-48.89
-50.82
-50.71
-48.46
-44.24
-38.47
-31.87
-25.25
-19.28
-14.38
-10.63
-7.80
-5.60
-3.81
-2.36
-1.42
-1.15
-1.59
-2.56
-3.73
-4.71
-5.27
-5.44
-5.41
-5.43
-5.62
-5.97
-6.33
-6.57
-6.70
-6.85
-7.27
-8.26
-10.01
-12.63
-15.89
-19.39
-22.45
-24.35
-24.53
-22.74
-19.18
-14.39
-9.10
-3.99
0.49
4.17
7.09
9.38
11.08
12.15
12.50
12.08
11.02
9.64
8.34
7.40
6.90
6.63
6.24
5.45
4.17
2.62
1.20
0.26
-0.09
-0.11
-0.28
-1.14
-3.00
-5.87
-9.46
-13.32
-16.97
-19.91
-21.71
-21.98
-20.54
-17.43
-13.06
-8.01
-2.99
1.46
5.06
7.79
9.76
11.07
11.72
11.70
11.05
9.92
8.56
7.22
6.08
5.15
4.31
3.35
2.17
0.78
-0.67
-2.00
-3.09
-4.00
-4.87
-5.98
-7.55
-9.72
-12.50
-15.68
-18.89
-21.58
-23.18
-23.18
-21.39
-17.94
-13.30
-8.10
-2.96
1.68
5.58
8.70
11.05
12.68
13.60
13.82
13.37
12.31
10.85
9.22
7.73
6.62
5.96
5.63
5.38
4.87
3.89
2.41
0.60
-1.27
-2.98
-4.43
-5.73
-7.15
-9.06
-11.67
-14.99
-18.71
-22.18
-24.61
-25.24
-23.61
-19.77
-14.25
-7.92
-1.73
3.60
7.77
10.83
13.05
14.64
15.63
15.95
15.51
14.40
12.92
11.48
10.41
9.81
9.58
9.47
9.30
8.94
8.43
7.79
7.04
6.13
5.00
3.57
1.76
-0.50
-3.25
-6.54
-10.25
-14.19
-18.05
-21.43
-23.91
-25.08
-24.62
-22.40
-18.57
-13.56
-8.01
-2.59
2.13
5.83
8.44
10.10
11.01
11.40
11.43
11.19
10.72
10.08
9.31
8.58
8.12
8.11
8.67
9.67
10.74
11.46
11.51
10.78
9.43
7.73
5.93
4.17
2.37
0.43
-1.74
-4.19
-6.93
-9.95
-13.21
-16.56
-19.66
-21.91
-22.67
-21.45
-18.16
-13.21
-7.42
-1.63
3.47
7.58
10.76
13.19
15.03
16.26
16.78
16.52
15.56
14.12
12.48
10.92
9.60
8.58
7.83
7.29
6.87
6.45
5.95
5.29
4.43
3.35
2.00
0.39
-1.47
-3.50
-5.60
-7.70
-9.81
-11.98
-14.25
-16.50
-18.37
-19.33
-18.84
-16.58
-12.61
-7.38
-1.67
3.74
8.22
11.47
13.46
14.37
14.41
13.78
12.64
11.17
9.55
8.00
6.71
5.74
5.11
4.77
4.67
4.76
4.97
5.17
5.22
4.99
4.43
3.55
2.38
0.96
-0.68
-2.55
-4.69
-7.14
-9.90
-12.81
-15.56
-17.66
-18.58
-17.88
-15.52
-11.80
-7.36
-2.88
1.08
4.25
6.60
8.26
9.35
9.94
10.07
9.77
9.14
8.32
7.53
6.91
6.52
6.30
6.08
5.67
4.94
3.91
2.69
1.50
0.50
-0.23
-0.80
-1.38
-2.19
-3.45
-5.31
-7.78
-10.73
-13.80
-16.46
-18.10
-18.25
-16.66
-13.48
-9.24
-4.67
-0.45
2.97
5.50
7.32
8.70
9.78
10.51
10.75
10.36
9.40
8.13
6.94
6.15
5.90
6.10
6.51
6.87
6.99
6.76
6.20
5.34
4.26
3.05
1.79
0.52
-0.83
-2.38
-4.35
-6.89
-10.01
-13.50
-16.88
-19.54
-20.88
-20.49
-18.29
-14.61
-10.05
-5.34
-1.06
2.46
5.21
7.36
9.13
10.63
11.77
12.31
12.07
11.02
9.40
7.68
6.32
5.68
5.74
6.22
6.65
6.64
6.02
4.85
3.32
1.62
-0.08
-1.56
-2.49
-2.59
-1.95
-1.27
-1.87
-5.27
-12.50
-23.49
-36.78
-49.84
-59.66
-63.55
-59.67
-47.48
-27.68
-2.15
26.39
54.71
79.55
98.07
108.46
110.40
105.30
96.07
86.33
79.33
76.84
78.62
82.65
86.12
86.52
82.53
74.23
62.72
49.49
35.94
23.15
11.89
2.62
-4.43
-9.26
-11.95
-12.74
-11.98
-10.29
-8.56
-7.73
-8.55
-11.07
-14.59
-17.81
-19.33
-18.15
-14.07
-7.63
0.04
7.60
13.80
17.78
19.29
18.71
16.90
14.79
12.92
11.21
8.99
5.55
0.59
-5.52
-11.98
-18.05
-23.49
-28.70
-34.29
-40.66
-47.58
-54.26
-59.67
-63.04
-64.18
-63.51
-61.94
-60.42
-59.71
-60.12
-61.55
-63.62
-65.87
-67.87
-69.28
-69.75
-68.84
-66.09
-61.22
-54.31
-45.94
-37.07
-28.74
-21.82
-16.70
-13.29
-11.15
-9.74
-8.59
-7.49
-6.45
-5.66
-5.34
-5.64
-6.45
-7.51
-8.45
-9.00
-9.03
-8.66
-8.15
-7.84
-7.97
-8.67
-9.94
-11.67
-13.69
-15.83
-17.92
-19.81
-21.43
-22.86
-24.25
-25.76
-27.47
-29.20
-30.48
-30.72
-29.30
-25.91
-20.67
-14.12
-7.10
-0.48
5.11
9.32
12.17
13.91
14.86
15.31
15.51
15.56
15.51
15.35
15.05
14.59
13.99
13.30
12.60
12.06
11.75
11.70
11.77
11.66
11.01
9.57
7.28
4.32
1.03
-2.25
-5.31
-8.12
-10.82
-13.70
-17.08
-21.22
-26.12
-31.37
-36.16
-39.47
-40.33
-38.36
-33.93
-28.02
-21.89
-16.56
-12.50
-9.61
-7.45
-5.62
-4.02
-2.84
-2.52
-3.53
-6.26
-10.96
-17.55
-25.45
-33.34
-39.35
-41.54
-38.66
-30.89
-20.01
-8.95
-0.85
1.90
-1.73
-11.30
-25.30
-41.53
-57.49
-70.69
-79.10
-81.47
-77.48
-67.77
-53.67
-36.91
-19.34
-2.72
11.66
23.17
31.95
38.80
44.60
49.70
53.70
55.71
55.18
52.49
49.10
46.90
47.36
50.78
56.31
62.59
68.54
73.63
77.85
81.44
84.37
86.40
87.39
87.48
87.37
88.03
90.41
95.23
102.82
113.17
125.94
140.18
154.31
166.09
173.25
174.27
169.04
158.78
145.33
130.36
114.82
99.11
83.62
69.04
56.24
45.75
37.28
29.74
21.70
12.05
0.42
-12.94
-27.50
-42.75
-58.18
-73.30
-87.52
-100.46
-112.11
-122.86
-133.12
-142.76
-150.71
-155.04
-153.40
-143.81
-125.37
-98.85
-66.91
-33.81
-4.38
17.42
30.05
34.90
35.63
36.33
39.62
45.62
52.15
56.12
55.25
49.26
40.32
32.52
30.58
38.26
56.82
84.28
115.57
143.90
163.05
169.56
163.80
149.38
131.34
113.87
98.98
86.39
74.52
61.70
47.07
30.60
12.75
-5.97
-25.39
-45.53
-66.37
-87.53
-108.14
-127.07
-143.25
-156.04
-165.33
-171.53
-175.18
-176.69
-176.04
-172.69
-165.77
-154.54
-138.84
-119.59
-98.73
-78.74
-61.85
-49.26
-40.79
-35.01
-29.85
-23.23
-13.69
-0.74
14.96
31.55
46.31
56.30
59.40
55.27
45.81
34.62
25.62
21.54
22.64
26.74
30.20
29.66
23.44
12.22
-1.39
-14.07
-23.29
-28.45
-31.01
-33.56
-38.55
-46.91
-57.60
-67.93
-74.39
-73.22
-60.88
-34.50
6.97
61.35
122.28
179.76
222.57
241.77
233.92
202.05
154.15
99.88
47.42
1.77
-34.94
-62.16
-79.88
-88.42
-88.87
-83.80
-76.97
-72.39
-73.00
-79.73
-91.29
-104.70
-116.43
-123.65
-125.09
-121.33
-114.38
-106.88
-100.87
-96.62
-91.96
-82.43
-62.36
-26.83
25.97
92.63
164.25
228.10
270.98
283.10
261.07
208.78
136.00
55.52
-19.68
-78.55
-113.28
-120.27
-101.09
-62.93
-17.78
20.23
38.98
32.37
2.12
-43.17
-91.49
-131.40
-154.72
-157.43
-139.23
-103.03
-54.68
-2.94
41.60
69.14
73.92
56.58
24.30
-11.52
-38.84
-48.73
-37.70
-8.22
32.23
73.28
104.45
117.95
110.84
85.74
49.73
11.72
-20.34
-41.52
-50.32
-47.79
-36.28
-18.60
2.18
22.52
38.60
47.13
46.40
37.09
22.23
6.26
-6.33
-12.36
-10.79
-2.74
9.07
21.27
30.74
35.34
34.37
28.51
19.51
9.52
0.53
-6.13
-10.02
-11.39
-10.94
-9.47
-7.64
-5.83
-4.24
-2.89
-1.79
-0.94
-0.31
0.20
0.80
1.77
3.30
5.36
7.62
9.53
10.56
10.41
9.08
6.90
4.24
1.35
-1.69
-4.86
-7.98
-10.61
-12.05
-11.62
-8.90
-4.00
2.56
9.95
17.41
24.38
30.53
35.58
39.14
40.85
40.61
38.74
36.11
33.82
32.75
33.20
34.83
36.80
38.06
37.50
34.18
27.34
16.72
2.90
-12.45
-26.66
-36.79
-40.68
-37.76
-29.37
-18.17
-7.18
1.32
6.33
8.22
8.28
8.11
9.08
12.04
17.05
23.44
30.02
35.52
39.04
40.23
39.14
35.75
29.53
19.45
4.64
-14.81
-37.42
-60.37
-80.32
-94.44
-101.10
-99.72
-90.35
-73.41
-50.25
-24.03
-0.20
14.50
14.46
-2.02
-31.34
-65.49
-94.96
-112.27
-114.48
-103.37
-83.68
-60.75
-38.54
-19.11
-3.11
9.37
18.21
23.35
25.02
24.03
21.60
19.19
17.88
17.99
18.98
19.68
19.00
16.62
13.40
11.09
11.53
15.67
22.93
31.29
37.95
40.41
37.49
29.84
19.97
11.56
8.27
12.37
23.83
40.01
56.55
68.82
73.58
70.15
60.43
48.12
37.21
30.78
30.26
35.44
44.93
56.82
69.20
80.50
89.64
96.06
99.63
100.42
98.42
93.49
85.41
74.22
60.54
45.68
31.37
19.02
9.04
0.43
-8.93
-21.20
-37.42
-56.81
-76.93
-94.76
-107.94
-115.75
-119.04
-119.60
-119.03
-118.09
-116.54
-113.63
-108.76
-101.79
-93.09
-83.31
-73.08
-62.74
-52.26
-41.34
-29.71
-17.44
-5.32
5.37
13.27
17.68
18.93
18.34
17.60
17.98
19.81
22.45
24.76
25.79
25.31
23.70
21.70
19.91
18.57
17.64
16.88
16.04
14.93
13.40
11.34
8.60
5.05
0.63
-4.60
-10.31
-15.90
-20.54
-23.50
-24.40
-23.49
-21.56
-19.58
-18.27
-17.70
-17.43
-16.89
-16.00
-15.30
-15.83
-18.47
-23.35
-29.62
-35.74
-40.10
-41.69
-40.38
-36.79
-31.79
-26.17
-20.45
-15.03
-10.67
-8.63
-10.52
-17.54
-29.65
-44.90
-59.80
-70.51
-74.60
-72.35
-66.88
-62.91
-64.55
-73.50
-88.29
-105.09
-119.51
-128.54
-131.57
-130.10
-126.72
-123.81
-122.61
-122.96
-123.33
-120.98
-112.06
-92.27
-58.01
-8.25
53.84
120.31
179.66
219.93
232.55
215.43
173.75
118.20
61.25
13.36
-19.58
-36.61
-40.23
-34.39
-22.77
-8.13
7.61
23.02
37.06
49.20
59.51
68.50
76.58
83.54
88.54
90.51
88.80
83.59
75.83
66.83
57.65
48.79
40.30
32.06
24.04
16.43
9.55
3.71
-1.02
-4.78
-7.86
-10.45
-12.52
-13.68
-13.40
-11.34
-7.54
-2.60
2.49
6.74
9.50
10.70
10.74
10.18
9.37
8.30
6.75
4.54
1.81
-0.86
-2.81
-3.51
-2.94
-1.59
-0.30
0.19
-0.50
-2.23
-4.51
-6.73
-8.52
-9.88
-11.13
-12.71
-14.91
-17.65
-20.39
-22.28
-22.52
-20.57
-16.45
-10.72
-4.33
1.67
6.42
9.45
10.75
10.58
9.39
7.62
5.58
3.52
1.65
0.20
-0.70
-1.01
-0.88
-0.62
-0.54
-0.87
-1.63
-2.71
-3.92
-5.28
-6.90
-9.06
-11.97
-15.58
-19.48
-22.90
-24.93
-24.87
-22.38
-17.71
-11.56
-4.92
1.26
6.25
9.63
11.32
11.48
10.43
8.56
6.28
3.98
1.95
0.31
-0.93
-1.87
-2.67
-3.44
-4.23
-5.03
-5.78
-6.49
-7.26
-8.28
-9.75
-11.87
-14.70
-18.11
-21.68
-24.75
-26.46
-26.05
-23.07
-17.61
-10.42
-2.64
4.60
10.47
14.63
17.14
18.34
18.49
17.81
16.47
14.69
12.77
10.94
9.34
7.92
6.55
5.08
3.50
1.96
0.64
-0.24
-0.70
-0.93
-1.31
-2.30
-4.30
-7.47
-11.57
-16.00
-19.86
-22.26
-22.45
-20.15
-15.59
-9.42
-2.57
4.06
9.71
13.98
16.80
18.31
18.79
18.51
17.66
16.40
14.90
13.37
12.03
11.03
10.37
9.87
9.30
8.52
7.52
6.51
5.67
5.10
4.64
3.94
2.62
0.40
-2.79
-6.85
-11.43
-15.99
-19.75
-21.88
-21.67
-18.87
-13.82
-7.45
-0.86
5.04
9.77
13.37
16.11
18.22
19.74
20.49
20.32
19.20
17.37
15.18
13.02
11.16
9.72
8.69
7.93
7.27
6.54
5.57
4.24
2.53
0.48
-1.76
-4.03
-6.25
-8.39
-10.60
-13.16
-16.31
-20.13
-24.34
-28.32
-31.20
-32.15
-30.63
-26.58
-20.44
-13.03
-5.29
1.91
7.93
12.42
15.34
16.86
17.37
17.27
16.91
16.50
16.11
15.66
15.08
14.38
13.68
13.21
13.12
13.45
14.06
14.64
14.84
14.35
13.01
10.82
7.99
4.80
1.59
-1.31
-3.68
-5.42
-6.63
-7.56
-8.57
-9.86
-11.36
-12.59
-12.76
-11.02
-6.79
-0.05
8.68
18.52
28.52
37.92
46.20
53.06
58.38
62.26
65.07
67.43
70.16
73.94
79.05
85.25
91.90
98.24
103.72
108.10
111.31
113.24
113.51
111.51
106.47
97.72
84.79
67.49
45.95
20.80
-6.49
-33.38
-56.49
-72.48
-79.23
-76.83
-67.72
-55.62
-43.99
-34.56
-26.88
-19.02
-8.87
4.64
21.19
39.49
58.12
76.03
92.57
107.05
118.34
124.94
125.46
119.23
106.68
89.41
69.74
50.21
33.16
20.14
11.62
6.81
3.83
0.35
-5.48
-14.16
-24.49
-34.05
-40.41
-42.23
-40.04
-35.81
-31.96
-30.19
-30.86
-33.27
-36.40
-39.68
-43.08
-46.84
-50.90
-54.55
-56.58
-55.86
-51.94
-45.33
-37.28
-29.22
-22.33
-17.15
-13.61
-11.29
-9.75
-8.81
-8.59
-9.36
-11.22
-13.92
-16.79
-18.98
-19.84
-19.20
-17.49
-15.50
-13.97
-13.32
-13.47
-13.96
-14.28
-14.10
-13.49
-12.88
-12.87
-14.03
-16.66
-20.67
-25.59
-30.69
-35.20
-38.50
-40.23
-40.44
-39.48
-38.01
-36.93
-37.07
-38.88
-42.01
-45.22
-46.62
-44.53
-38.22
-28.46
-17.35
-7.59
-1.51
-0.31
-3.89
-11.17
-20.64
-30.95
-41.16
-50.86
-60.00
-68.73
-77.26
-85.73
-94.13
-102.37
-110.29
-117.73
-124.45
-130.03
-133.66
-134.29
-130.84
-122.62
-109.62
-92.53
-72.41
-50.18
-26.28
-0.72
26.35
53.97
80.06
101.65
115.93
121.41
118.63
110.11
99.37
89.49
82.16
77.37
73.77
69.69
63.70
54.78
42.43
27.02
10.43
-3.59
-10.37
-6.62
7.03
24.83
37.45
36.11
17.16
-15.59
-52.21
-81.01
-93.28
-85.99
-61.70
-26.29
13.24
49.80
76.29
86.13
74.78
41.90
-7.49
-64.25
-118.19
-161.29
-189.79
-203.74
-205.19
-196.47
-179.50
-156.22
-129.28
-101.97
-77.36
-57.16
-41.27
-28.00
-15.26
-1.64
13.17
28.51
43.38
56.68
67.50
75.07
78.81
78.76
75.86
72.07
69.80
70.92
75.69
82.49
88.45
90.89
88.84
83.60
78.15
75.74
78.22
85.32
94.81
103.78
109.90
112.02
110.32
105.62
98.68
89.97
79.49
67.04
52.53
36.19
18.44
-0.44
-20.30
-40.99
-61.65
-80.35
-94.29
-100.75
-98.52
-88.86
-75.28
-62.22
-52.83
-47.62
-44.35
-39.64
-31.20
-19.38
-7.07
1.93
4.86
1.19
-7.57
-19.13
-31.66
-44.13
-56.11
-66.78
-74.57
-77.55
-74.34
-64.96
-50.80
-34.01
-16.64
-0.09
14.80
27.33
36.65
41.95
42.98
40.56
36.61
33.66
33.90
38.43
46.86
57.72
69.21
79.76
88.38
94.32
96.71
94.62
87.82
77.55
66.56
58.09
54.26
54.83
57.34
58.69
56.99
52.72
48.27
46.37
48.46
53.95
60.79
66.41
68.69
66.29
58.50
45.27
27.12
5.36
-18.09
-41.08
-61.86
-79.05
-91.73
-99.28
-101.50
-98.87
-92.72
-85.08
-78.14
-73.55
-71.79
-72.26
-73.68
-74.66
-74.24
-71.99
-67.89
-62.14
-54.99
-46.66
-37.51
-28.14
-19.44
-12.54
-8.48
-7.82
-10.32
-14.88
-19.68
-22.86
-23.11
-20.12
-14.71
-8.41
-2.90
0.62
1.69
0.56
-2.28
-6.35
-11.47
-17.57
-24.30
-30.78
-35.46
-36.57
-32.78
-23.86
-11.00
3.40
16.50
26.06
31.09
32.13
30.77
28.82
27.60
27.44
27.72
27.00
23.50
15.53
2.27
-15.37
-34.38
-49.96
-56.97
-52.28
-36.60
-14.85
5.37
16.95
16.33
5.21
-10.06
-21.35
-22.31
-11.07
9.27
32.43
51.98
64.23
69.35
70.45
71.25
73.80
77.51
79.86
78.20
71.30
59.68
44.81
27.80
9.09
-10.75
-29.67
-43.97
-49.59
-44.29
-29.59
-10.89
4.61
10.75
4.87
-11.67
-34.82
-59.91
-83.19
-102.24
-115.42
-121.44
-119.56
-110.40
-96.53
-82.19
-71.70
-67.64
-69.64
-74.63
-78.36
-77.70
-72.37
-65.05
-60.10
-61.23
-69.37
-81.87
-92.94
-95.20
-81.63
-47.73
6.71
76.19
149.56
211.96
248.59
249.84
215.34
155.28
87.39
30.47
-2.75
-10.02
0.88
17.00
26.85
25.07
13.41
-2.03
-14.87
-21.39
-20.95
-14.46
-2.63
14.95
38.60
66.81
95.20
117.08
125.72
117.29
92.85
58.79
25.21
2.63
-1.69
13.60
43.37
77.80
105.92
119.26
114.33
92.95
60.75
24.76
-8.59
-34.51
-49.73
-52.25
-41.35
-18.12
13.95
49.07
80.51
102.60
112.66
111.71
103.74
93.84
86.38
84.06
88.06
98.67
115.51
137.22
160.61
180.56
190.81
186.17
164.62
128.36
83.03
35.56
-8.48
-46.43
-78.53
-106.69
-132.68
-156.93
-178.23
-194.27
-202.56
-201.37
-190.40
-171.04
-146.25
-119.94
-96.02
-77.31
-64.90
-57.97
-54.45
-52.10
-49.51
-46.62
-44.55
-44.86
-48.60
-55.55
-64.16
-72.03
-76.74
-76.79
-71.96
-63.32
-52.82
-42.70
-35.00
-31.26
-32.15
-37.14
-44.18
-49.93
-50.61
-43.35
-27.43
-4.78
20.58
43.94
61.44
71.08
72.93
68.51
59.97
49.56
39.27
30.73
25.02
22.39
22.20
23.22
24.36
25.22
26.31
28.47
32.19
37.04
41.77
44.91
45.53
43.67
40.24
36.49
33.43
31.51
30.66
30.44
30.33
29.89
28.90
27.39
25.60
23.84
22.43
21.40
20.47
19.18
17.07
13.77
9.04
2.85
-4.60
-12.84
-21.34
-29.74
-38.13
-47.15
-57.76
-70.85
-86.85
-105.66
-126.78
-149.43
-172.35
-193.69
-211.00
-221.80
-224.52
-219.46
-209.02
-197.00
-187.17
-181.73
-180.43
-180.69
-178.28
-168.36
-146.45
-109.64
-57.92
4.74
70.27
128.23
168.99
187.31
184.37
167.20
145.58
127.89
118.08
115.28
115.72
115.79
114.26
112.67
113.84
119.98
131.22
145.75
160.86
174.18
184.47
191.56
195.54
195.94
191.49
180.58
162.23
137.00
107.16
76.29
48.07
25.19
8.69
-2.02
-8.60
-12.87
-16.12
-18.85
-20.94
-22.30
-23.60
-26.50
-33.39
-46.55
-67.09
-94.26
-125.35
-156.43
-183.48
-203.56
-215.31
-218.94
-215.67
-207.13
-194.80
-179.75
-162.59
-143.48
-122.44
-99.62
-75.71
-52.09
-30.59
-12.91
0.20
9.36
16.46
23.66
32.31
42.03
50.68
55.32
53.73
45.81
33.91
21.98
13.74
10.79
11.84
13.50
12.38
7.03
-1.06
-8.37
-11.34
-8.50
-1.27
6.92
12.61
14.20
12.58
10.27
9.76
12.03
16.17
19.99
21.36
19.34
14.58
8.91
4.40
2.32
2.70
4.46
6.00
6.02
4.07
0.59
-3.43
-7.07
-9.92
-12.25
-14.70
-17.75
-21.32
-24.69
-26.82
-26.92
-24.88
-21.36
-17.45
-14.09
-11.64
-9.74
-7.68
-4.79
-0.90
3.58
7.84
11.02
12.59
12.50
11.24
9.63
8.62
9.00
11.26
15.47
21.34
28.39
35.91
43.04
48.92
52.99
55.28
56.64
58.54
62.39
68.87
77.46
86.66
94.58
99.78
101.78
100.97
98.23
94.41
90.15
85.99
82.56
80.52
80.32
81.88
84.54
87.36
89.49
90.56
90.83
91.04
92.05
94.29
97.40
99.93
99.70
94.24
81.59
60.97
33.25
1.05
-31.90
-61.76
-85.83
-103.37
-115.62
-124.99
-133.54
-141.55
-147.07
-146.79
-137.89
-120.02
-96.18
-71.84
-52.69
-42.20
-40.39
-44.11
-48.36
-47.98
-38.94
-19.16
10.88
48.06
86.96
120.95
143.93
152.23
145.66
127.27
101.83
74.17
48.00
25.82
9.54
0.95
1.74
12.59
32.36
57.73
83.85
105.48
118.53
121.21
114.35
100.70
83.74
66.40
50.20
35.11
19.97
3.32
-15.82
-37.42
-60.39
-82.96
-103.34
-120.20
-132.83
-141.05
-144.95
-144.76
-141.15
-135.45
-129.71
-126.11
-126.06
-129.30
-133.81
-136.61
-135.09
-128.25
-117.23
-104.80
-94.08
-87.30
-84.86
-85.17
-85.61
-83.88
-79.32
-73.21
-68.00
-65.74
-66.77
-69.55
-71.55
-70.38
-64.45
-52.61
-33.67
-6.59
28.50
69.02
109.75
144.30
167.68
178.28
177.96
170.21
157.69
140.91
119.04
92.09
62.69
36.16
18.77
14.95
25.26
46.09
71.00
92.82
105.95
107.76
98.92
82.75
63.71
45.94
32.15
23.26
18.82
17.76
19.01
21.64
24.65
26.66
26.04
21.30
11.85
-1.41
-16.16
-29.37
-38.45
-42.25
-41.46
-38.03
-34.05
-30.53
-26.91
-21.49
-12.56
0.61
17.41
36.16
54.76
71.07
82.80
87.40
82.43
66.56
40.92
9.56
-21.39
-45.87
-60.13
-64.05
-60.69
-54.33
-48.40
-44.26
-41.46
-38.93
-36.23
-33.94
-33.14
-34.31
-36.61
-37.96
-36.14
-29.99
-20.28
-9.58
-1.19
2.31
0.25
-5.60
-11.60
-13.56
-8.28
5.12
24.69
46.27
64.72
75.75
77.27
69.90
56.36
40.22
24.49
10.72
-1.04
-11.58
-21.61
-31.09
-39.10
-44.30
-45.64
-43.11
-37.96
-32.25
-28.13
-26.94
-28.71
-32.30
-35.87
-37.41
-35.04
-27.21
-13.03
7.11
30.93
54.43
72.88
82.73
83.32
77.10
68.28
60.40
54.44
48.39
38.91
23.62
2.80
-20.49
-42.00
-58.27
-67.94
-71.71
-71.32
-68.28
-63.26
-56.18
-46.91
-36.03
-25.03
-15.95
-10.57
-9.47
-11.50
-14.03
-14.00
-9.12
1.13
15.28
30.60
44.04
53.43
57.90
57.76
53.85
46.85
36.80
23.22
5.59
-16.03
-40.49
-65.57
-88.38
-106.14
-116.84
-119.60
-114.54
-102.51
-84.83
-63.26
-40.19
-18.39
-0.60
11.37
17.42
19.41
20.51
23.76
30.65
40.26
49.56
54.68
52.55
42.28
25.46
5.64
-12.93
-26.70
-33.74
-34.06
-29.13
-21.19
-12.38
-4.20
2.55
7.66
11.06
12.69
12.47
10.64
7.90
5.26
3.62
3.27
3.73
4.05
3.33
1.25
-1.88
-5.27
-8.11
-9.72
-9.55
-7.22
-2.60
3.83
10.93
17.10
20.90
21.86
20.70
19.06
18.60
20.17
23.37
26.81
28.76
27.82
23.42
15.94
6.62
-2.78
-10.53
-15.56
-17.86
-18.54
-19.26
-21.49
-25.83
-32.00
-39.18
-46.24
-51.68
-53.08
-47.43
-32.18
-7.11
24.19
54.63
75.84
81.49
70.13
45.78
16.04
-11.14
-30.47
-40.65
-43.63
-42.75
-40.96
-39.87
-39.89
-40.68
-41.59
-41.86
-40.55
-36.65
-29.40
-18.66
-5.30
8.81
21.21
29.56
32.43
29.84
23.46
16.15
11.19
11.23
17.19
27.95
40.53
51.20
56.81
56.02
49.56
39.62
28.63
18.08
8.01
-2.77
-15.75
-31.80
-50.54
-70.29
-88.55
-102.64
-110.29
-109.94
-101.03
-84.10
-60.99
-34.68
-8.99
12.28
26.31
32.08
30.78
25.42
19.88
17.66
20.95
30.07
43.57
58.55
71.27
77.93
75.58
63.05
41.59
14.89
-11.91
-33.78
-47.51
-52.70
-51.53
-47.42
-43.26
-40.24
-37.68
-34.00
-27.99
-19.62
-10.09
-1.01
6.37
11.67
15.18
17.33
18.25
17.67
15.24
11.01
5.72
0.69
-2.57
-3.06
-0.63
3.80
8.75
12.78
15.14
15.95
15.95
15.83
15.73
15.01
12.64
7.83
0.58
-8.18
-16.80
-23.51
-27.03
-26.86
-23.34
-17.41
-10.19
-2.58
4.88
12.04
18.69
24.29
27.81
28.12
24.56
17.62
9.23
2.43
0.43
5.30
16.91
32.63
48.13
58.89
61.79
56.08
43.35
26.62
9.10
-6.78
-19.82
-30.00
-37.99
-44.78
-51.26
-57.92
-64.69
-70.75
-74.84
-75.63
-72.27
-64.58
-53.08
-38.60
-22.15
-4.92
11.67
25.81
35.68
39.82
37.84
30.67
20.81
11.69
6.79
8.43
16.75
29.50
42.77
52.53
56.08
53.00
44.83
33.83
21.73
8.90
-5.29
-21.51
-39.45
-57.49
-73.16
-84.08
-88.88
-87.42
-80.52
-69.40
-55.14
-38.57
-20.31
-1.12
17.93
35.60
50.66
62.13
69.29
71.67
68.85
60.68
47.56
30.88
13.08
-2.80
-14.08
-19.24
-18.54
-13.82
-7.80
-3.25
-2.19
-5.50
-12.90
-23.19
-34.64
-45.38
-53.70
-58.36
-58.75
-54.95
-47.68
-38.12
-27.71
-17.80
-9.39
-2.74
2.66
7.82
13.69
20.50
27.53
33.48
37.25
38.54
38.05
36.85
35.65
34.28
31.84
27.49
21.29
14.39
8.49
4.85
3.38
2.67
0.70
-3.92
-11.22
-19.75
-27.21
-31.41
-31.14
-26.50
-18.76
-9.86
-1.78
3.99
6.78
6.97
6.04
6.35
10.39
19.86
34.64
52.37
68.94
79.86
81.75
73.60
57.05
35.62
13.48
-5.88
-20.45
-29.87
-35.12
-37.96
-40.45
-44.42
-51.10
-60.67
-72.04
-82.93
-90.44
-91.83
-85.43
-71.23
-51.00
-27.84
-5.26
13.65
26.98
34.30
36.75
36.63
36.70
39.21
44.85
52.31
58.73
61.04
57.52
48.70
37.17
26.09
17.65
11.99
7.38
1.43
-7.54
-19.68
-33.73
-47.77
-59.93
-68.82
-73.52
-73.38
-68.11
-57.98
-44.00
-27.80
-11.37
3.59
16.12
26.15
34.39
41.83
49.23
56.68
63.39
67.78
68.05
62.76
51.67
36.04
18.54
2.49
-9.20
-14.96
-14.99
-11.11
-5.96
-1.97
-0.65
-2.31
-6.20
-11.14
-15.93
-19.66
-21.69
-21.60
-19.17
-14.50
-8.15
-0.97
6.07
12.22
17.21
21.12
24.13
26.27
27.45
27.57
26.85
25.73
24.56
23.48
22.25
20.62
18.68
16.97
16.21
16.90
18.85
21.29
23.15
23.47
21.60
17.20
10.26
1.19
-8.84
-17.92
-23.75
-24.50
-19.84
-11.30
-1.96
4.74
6.35
2.56
-4.40
-10.34
-10.39
-0.97
18.51
44.88
71.73
91.32
97.21
86.51
61.07
27.01
-7.36
-34.30
-49.19
-51.93
-46.58
-39.54
-36.89
-42.11
-54.89
-71.68
-87.26
-96.86
-97.64
-89.13
-72.82
-51.21
-27.06
-3.02
18.58
35.94
48.06
54.98
57.72
57.90
57.12
56.33
55.65
54.54
52.38
49.00
44.91
41.06
38.27
36.82
36.09
34.73
31.15
24.08
13.04
-1.41
-17.69
-33.57
-46.62
-54.88
-57.35
-54.20
-46.69
-36.72
-26.11
-16.14
-7.20
1.09
9.53
18.88
29.33
40.12
49.54
55.26
54.88
46.94
31.68
11.40
-9.91
-27.70
-38.40
-40.63
-35.53
-26.12
-15.95
-7.76
-2.83
-1.11
-1.85
-4.26
-7.67
-11.27
-13.87
-13.99
-10.49
-3.25
6.44
16.19
23.43
26.45
25.08
20.62
15.22
10.94
9.03
9.69
12.18
15.17
17.21
17.19
14.74
10.39
5.47
1.58
-0.10
0.64
2.84
4.78
4.80
2.07
-2.90
-8.51
-12.70
-13.87
-11.55
-6.48
-0.20
5.58
9.74
12.01
12.93
13.43
14.22
15.39
16.24
15.61
12.36
6.08
-2.28
-10.10
-13.54
-8.90
5.64
28.51
54.49
76.11
86.13
80.13
57.98
23.72
-15.97
-53.80
-83.64
-101.61
-106.44
-99.38
-83.82
-64.48
-46.23
-32.76
-25.59
-23.84
-24.97
-25.95
-24.49
-19.61
-11.64
-1.76
8.51
17.73
24.67
28.46
28.79
25.96
21.02
15.61
11.51
10.07
11.63
15.34
19.49
22.26
22.53
20.38
16.96
13.81
12.03
11.63
11.60
10.46
7.16
1.67
-5.08
-11.69
-17.02
-20.61
-22.67
-23.77
-24.45
-25.03
-25.70
-26.54
-27.45
-28.04
-27.49
-24.88
-19.69
-12.22
-3.74
3.85
8.69
9.44
5.60
-2.41
-13.27
-24.80
-34.24
-38.81
-36.60
-27.28
-12.45
4.92
21.57
34.98
44.04
48.89
50.29
49.02
45.64
40.65
34.62
28.35
22.56
17.72
13.83
10.47
7.03
2.98
-1.95
-7.66
-13.56
-18.67
-21.96
-22.68
-20.81
-16.96
-12.07
-6.89
-1.65
3.85
9.85
16.05
21.55
25.11
25.73
23.27
18.37
12.08
5.43
-1.03
-7.12
-12.71
-17.48
-21.00
-22.89
-23.15
-22.23
-20.84
-19.75
-19.56
-20.62
-22.99
-26.12
-28.52
-27.72
-20.89
-6.18
15.88
41.64
65.10
79.95
82.13
71.58
52.27
30.40
11.85
-0.07
-5.38
-6.67
-7.36
-10.01
-15.33
-22.31
-29.13
-34.09
-36.44
-36.53
-35.34
-33.87
-32.73
-32.03
-31.72
-31.79
-32.21
-32.47
-31.11
-25.79
-14.30
3.88
26.53
48.79
64.83
70.55
65.63
53.91
41.57
33.92
32.40
33.63
31.14
18.94
-4.91
-36.92
-69.57
-94.72
-107.16
-106.36
-95.69
-80.01
-63.32
-47.70
-33.89
-22.48
-14.54
-11.00
-11.42
-13.28
-12.62
-5.95
7.67
25.72
43.06
54.14
55.44
46.94
31.89
15.26
1.64
-6.39
-8.72
-7.03
-3.55
0.13
3.44
6.58
9.85
13.14
15.83
17.27
17.12
15.55
13.05
10.03
6.59
2.60
-1.93
-6.47
-10.05
-11.56
-10.32
-6.38
-0.45
6.43
13.27
19.32
24.16
27.59
29.54
30.05
29.26
27.30
24.31
20.41
15.84
10.98
6.26
1.89
-2.37
-7.28
-13.82
-22.49
-32.80
-43.06
-50.86
-54.06
-51.71
-44.70
-35.52
-27.44
-23.24
-24.13
-29.19
-35.44
-38.44
-33.59
-17.75
9.00
42.38
74.40
95.61
98.38
80.20
45.15
2.87
-34.80
-58.10
-62.69
-50.72
-29.45
-8.21
5.03
5.98
-5.12
-24.33
-45.61
-62.85
-71.40
-68.95
-55.74
-34.11
-7.90
18.36
40.31
54.61
59.62
55.84
45.77
33.42
23.33
19.28
23.06
33.72
47.62
59.65
65.18
61.94
50.82
35.21
19.27
5.93
-4.02
-11.72
-18.83
-26.10
-32.85
-37.45
-38.56
-35.98
-30.85
-24.92
-19.53
-15.00
-10.77
-6.12
-0.94
3.90
6.97
7.15
4.41
0.01
-3.99
-5.71
-4.23
-0.00
5.41
9.76
10.63
5.97
-5.33
-22.80
-43.84
-63.82
-77.16
-79.20
-68.11
-45.85
-17.49
10.72
33.67
49.04
57.34
60.77
61.68
61.44
60.32
58.02
54.44
49.96
45.32
41.17
37.62
34.27
30.32
25.03
18.16
10.17
2.17
-4.45
-8.58
-9.88
-8.87
-6.64
-4.40
-2.93
-2.39
-2.48
-2.66
-2.51
-1.82
-0.55
1.19
3.18
5.09
6.40
6.56
5.26
2.70
-0.37
-2.86
-3.88
-3.13
-1.12
0.91
1.46
-0.70
-6.02
-13.73
-21.49
-25.53
-21.58
-6.63
19.05
50.73
80.05
97.66
96.88
76.64
42.05
2.42
-32.29
-54.92
-63.00
-58.51
-46.30
-32.03
-20.49
-14.64
-15.33
-21.45
-30.58
-39.84
-46.74
-49.69
-48.05
-42.04
-32.63
-21.57
-11.14
-3.69
-0.60
-1.36
-3.44
-3.26
1.99
12.82
26.93
40.46
49.94
54.06
54.01
52.30
51.04
50.56
49.36
45.20
36.58
23.63
8.06
-7.65
-21.25
-31.37
-37.55
-40.00
-39.34
-36.40
-32.24
-28.05
-24.85
-23.14
-22.59
-22.14
-20.44
-16.56
-10.50
-3.37
3.14
7.49
9.00
7.95
5.25
1.79
-2.04
-6.36
-11.40
-16.98
-22.27
-26.04
-27.16
-25.21
-20.60
-14.50
-8.30
-3.13
0.37
2.19
2.77
2.89
3.53
5.70
10.26
17.60
27.32
38.12
47.93
54.49
56.14
52.39
44.34
34.36
25.26
19.19
16.86
17.28
18.46
18.48
16.44
12.78
8.84
5.94
4.40
3.36
1.00
-4.48
-14.07
-27.39
-42.72
-57.42
-68.68
-74.24
-72.85
-64.92
-52.80
-40.62
-33.25
-34.38
-44.48
-59.67
-72.41
-74.26
-59.50
-27.96
14.39
57.63
91.53
109.14
108.58
93.04
69.06
44.40
25.92
17.82
20.50
30.37
41.03
45.79
40.38
24.50
1.53
-23.35
-45.61
-62.78
-74.23
-80.09
-80.37
-74.94
-64.29
-50.32
-35.94
-23.86
-15.34
-9.67
-5.11
-0.27
4.65
7.82
6.78
-0.01
-12.10
-26.89
-40.48
-49.27
-51.43
-47.40
-39.04
-28.23
-15.57
-0.30
18.36
39.69
60.56
76.22
82.41
77.56
63.81
45.89
28.82
15.61
6.44
-0.41
-6.85
-13.56
-19.87
-24.59
-27.05
-27.58
-27.08
-26.43
-25.94
-25.42
-24.55
-23.47
-22.99
-24.42
-29.07
-37.56
-49.11
-61.25
-70.08
-71.36
-62.20
-42.58
-15.86
12.21
35.69
50.80
57.14
57.27
54.83
52.47
50.86
49.03
45.66
40.40
34.17
28.44
24.21
21.24
18.31
13.99
7.63
-0.13
-7.55
-12.56
-13.60
-10.29
-3.44
5.29
14.10
21.61
27.26
31.36
34.62
37.67
40.38
41.56
39.19
31.21
16.52
-4.11
-27.87
-50.51
-67.67
-76.43
-76.30
-69.41
-59.81
-51.94
-49.16
-52.48
-60.39
-69.41
-75.49
-75.53
-68.39
-55.12
-38.34
-21.17
-6.18
5.36
13.77
20.91
29.65
42.95
62.43
87.05
112.64
132.67
140.50
132.00
107.55
72.28
34.49
2.84
-16.43
-21.30
-14.14
-0.46
13.22
21.43
21.16
12.41
-2.39
-19.66
-35.84
-48.33
-55.55
-56.70
-51.54
-40.55
-25.35
-8.85
5.25
13.73
15.28
11.41
6.12
4.21
8.97
20.56
35.85
49.93
58.63
60.39
56.65
50.38
43.97
37.64
29.59
17.44
0.30
-20.09
-39.84
-54.62
-61.53
-60.13
-52.24
-40.68
-28.03
-15.82
-4.38
6.72
18.02
29.48
40.14
48.07
50.79
46.03
32.64
11.30
-15.22
-42.43
-65.25
-79.43
-82.81
-75.88
-61.38
-43.15
-24.80
-8.74
4.04
13.46
19.69
22.87
23.20
21.41
18.94
17.65
18.96
23.16
29.07
34.46
37.03
35.34
29.25
19.91
9.18
-0.96
-8.96
-14.02
-16.27
-16.68
-16.72
-17.72
-20.31
-24.03
-27.52
-29.19
-27.93
-23.71
-17.38
-10.23
-3.35
2.65
7.37
10.24
10.38
6.82
-0.79
-11.68
-23.81
-34.40
-40.86
-41.90
-38.06
-31.56
-25.52
-22.67
-24.28
-29.48
-35.50
-38.56
-35.33
-24.30
-6.62
14.15
33.11
45.74
49.44
44.34
33.03
19.50
7.65
0.08
-2.50
-1.09
2.13
4.76
4.79
1.25
-5.72
-14.97
-24.72
-33.10
-38.73
-40.93
-39.81
-36.11
-30.89
-25.25
-20.00
-15.53
-11.73
-8.05
-3.70
2.22
10.56
22.10
37.28
55.79
76.08
95.37
110.40
118.57
119.18
113.61
104.51
94.27
83.61
71.46
55.98
36.30
13.59
-9.06
-28.15
-41.45
-49.00
-52.74
-55.15
-57.94
-61.38
-64.73
-66.97
-67.39
-65.44
-60.34
-50.91
-36.02
-15.56
8.68
32.96
52.59
63.32
62.64
50.30
28.33
0.54
-28.03
-51.97
-66.46
-68.66
-58.76
-40.18
-18.41
0.87
13.76
19.02
17.99
13.37
8.18
4.91
5.23
9.89
18.57
29.69
40.74
48.83
51.80
48.99
41.53
31.76
22.26
14.77
9.71
6.29
3.12
-1.23
-7.72
-16.60
-27.34
-38.72
-49.04
-56.56
-60.15
-59.85
-56.95
-53.57
-51.61
-51.83
-53.38
-54.22
-52.11
-45.89
-36.05
-24.62
-14.22
-7.04
-4.08
-5.13
-9.18
-14.90
-20.79
-24.97
-25.15
-19.01
-5.24
15.32
39.14
60.67
74.11
75.66
65.05
45.63
23.12
3.51
-8.81
-11.94
-6.52
5.00
19.12
32.03
40.41
42.01
36.35
24.87
10.60
-2.70
-11.72
-14.57
-11.21
-3.21
7.00
16.87
24.50
29.05
30.75
30.77
30.81
32.69
37.60
45.51
54.88
62.96
66.78
64.43
56.02
43.86
31.50
22.20
17.54
16.97
18.35
19.17
17.72
13.54
7.10
-0.94
-10.16
-20.36
-31.11
-41.39
-49.58
-54.04
-53.90
-49.68
-43.24
-37.19
-33.74
-33.84
-36.72
-40.27
-42.18
-41.18
-37.81
-34.48
-34.51
-40.64
-53.66
-71.59
-90.05
-103.50
-107.31
-99.26
-80.36
-54.15
-25.21
2.56
26.96
47.35
63.83
76.13
83.47
84.98
80.65
71.98
61.65
52.53
46.42
43.31
41.45
38.27
31.47
20.20
5.45
-10.07
-22.83
-29.76
-29.46
-22.89
-13.04
-3.74
2.01
3.32
1.59
-0.43
-0.34
2.41
6.17
7.89
4.84
-3.86
-16.60
-29.99
-40.40
-45.63
-45.75
-42.92
-40.18
-40.15
-44.10
-51.71
-61.62
-71.88
-80.04
-82.97
-77.05
-59.23
-28.80
11.11
53.44
89.07
110.09
112.93
99.83
77.81
55.76
41.01
37.08
43.11
55.01
67.36
75.29
75.70
67.78
52.96
34.25
15.20
-1.27
-13.62
-21.81
-26.73
-29.39
-30.27
-29.17
-25.61
-19.43
-10.96
-0.71
11.19
24.98
40.70
57.15
71.63
80.84
82.65
77.72
69.50
62.43
59.22
59.09
57.98
51.05
35.54
12.55
-13.55
-37.40
-55.20
-66.07
-71.53
-73.97
-75.03
-75.03
-73.26
-68.93
-61.89
-52.69
-42.43
-31.97
-21.66
-11.40
-0.99
9.25
18.19
24.04
24.85
19.40
7.99
-7.17
-22.34
-33.32
-36.87
-31.84
-19.66
-3.71
11.92
23.87
30.30
31.02
27.02
19.81
11.09
2.54
-4.18
-7.69
-7.18
-2.70
4.84
14.10
23.72
32.79
40.90
48.01
54.15
59.23
63.06
65.40
66.23
65.78
64.45
62.63
60.32
57.07
52.05
44.47
34.04
21.29
7.35
-6.45
-19.10
-30.23
-40.01
-48.66
-56.03
-61.46
-63.98
-62.91
-58.34
-51.18
-42.92
-35.02
-28.45
-23.47
-19.80
-16.92
-14.48
-12.44
-11.03
-10.57
-11.32
-13.25
-16.09
-19.24
-21.77
-22.17
-18.49
-8.75
7.80
29.68
52.66
70.84
78.79
74.19
59.29
40.34
25.09
19.50
25.34
39.74
56.70
69.80
74.48
69.27
55.52
36.35
15.29
-4.58
-21.16
-33.12
-39.68
-40.48
-35.71
-26.60
-15.60
-6.03
-0.83
-1.28
-6.27
-12.70
-17.04
-16.90
-11.92
-3.34
6.95
17.51
27.49
36.23
42.63
45.10
42.19
33.40
19.73
3.35
-13.10
-27.52
-38.66
-46.08
-49.72
-49.72
-46.32
-40.00
-31.68
-22.60
-14.09
-7.22
-2.51
0.15
1.27
1.27
0.18
-2.58
-7.78
-15.92
-26.67
-38.71
-49.93
-57.99
-60.93
-57.67
-48.25
-33.81
-16.27
2.02
18.80
32.25
41.33
45.82
46.30
43.86
39.86
35.63
32.21
30.04
28.97
28.25
26.86
23.82
18.42
10.44
0.30
-10.87
-21.19
-28.41
-30.47
-26.33
-16.54
-3.19
10.58
21.62
27.65
27.82
22.68
13.85
3.44
-6.43
-14.06
-18.44
-19.54
-18.21
-15.93
-14.23
-14.15
-15.83
-18.52
-20.97
-21.96
-20.84
-17.75
-13.53
-9.40
-6.37
-4.73
-3.72
-1.56
4.05
15.13
32.38
54.45
77.87
97.65
108.75
107.60
93.34
68.23
36.95
5.24
-21.76
-40.64
-50.30
-51.74
-47.33
-40.05
-32.73
-27.68
-26.32
-29.19
-35.79
-44.77
-54.10
-61.44
-64.64
-62.18
-53.62
-39.71
-22.40
-4.40
11.53
23.44
30.94
35.40
39.43
45.71
55.58
68.30
81.29
91.29
95.77
93.80
85.98
73.64
58.00
39.72
19.18
-2.97
-25.58
-47.13
-66.36
-82.71
-96.25
-107.23
-115.51
-120.42
-121.14
-117.27
-109.28
-98.40
-86.03
-73.12
-59.80
-45.56
-29.97
-13.31
2.99
16.68
25.43
27.66
23.05
12.57
-1.79
-17.45
-31.64
-41.76
-45.93
-43.50
-35.42
-23.99
-12.20
-2.64
3.41
6.22
7.23
8.23
10.63
15.14
21.83
30.30
39.84
49.37
57.47
62.65
63.82
60.66
53.78
44.47
34.23
24.36
15.85
9.35
5.25
3.65
4.24
6.30
8.69
10.12
9.35
5.44
-2.05
-12.84
-25.83
-39.17
-50.56
-57.92
-60.11
-57.31
-50.95
-42.98
-34.98
-27.66
-20.86
-14.12
-7.36
-1.17
3.44
5.54
4.70
1.17
-4.28
-10.56
-16.28
-19.63
-18.52
-11.29
2.16
19.59
36.41
47.05
47.09
35.40
14.89
-8.30
-27.15
-36.38
-34.28
-22.91
-7.07
7.85
17.69
20.67
17.51
10.71
3.31
-2.16
-4.32
-3.03
1.11
7.30
14.83
23.02
30.85
36.84
39.47
38.09
33.80
29.53
28.82
33.80
43.73
54.87
62.26
62.32
54.78
42.68
30.65
22.27
18.40
17.19
15.56
11.06
3.07
-7.43
-18.69
-29.29
-38.52
-46.19
-52.17
-56.16
-57.73
-56.52
-52.46
-45.83
-37.13
-27.02
-16.33
-6.10
2.39
7.73
8.66
4.46
-4.85
-18.41
-34.61
-51.23
-65.67
-75.20
-77.45
-71.14
-56.68
-36.34
-13.67
7.56
24.58
36.19
42.70
45.24
45.01
42.88
39.49
35.50
31.74
28.92
27.26
26.32
25.02
22.16
16.90
9.06
-0.72
-11.07
-19.94
-25.03
-24.39
-17.40
-5.24
9.20
22.17
30.43
32.41
28.52
20.64
11.13
1.88
-5.99
-12.07
-16.29
-18.75
-19.81
-20.26
-21.13
-23.38
-27.27
-32.19
-36.73
-39.34
-39.13
-36.35
-32.43
-29.39
-28.82
-31.18
-35.43
-39.41
-40.63
-37.01
-27.34
-11.45
9.68
33.85
57.66
76.94
87.70
87.49
76.43
57.46
35.42
15.46
1.34
-5.45
-5.69
-1.68
3.74
7.84
8.40
4.01
-5.77
-20.12
-36.94
-53.07
-65.03
-69.93
-66.46
-55.28
-38.93
-20.97
-4.73
7.80
16.67
23.71
31.48
41.77
54.47
67.45
77.54
82.13
80.61
74.67
67.28
61.01
56.55
52.37
45.70
34.10
16.90
-4.36
-26.68
-46.75
-62.12
-71.62
-75.22
-73.57
-67.64
-58.51
-47.36
-35.42
-23.82
-13.41
-4.56
2.82
9.16
14.83
19.83
23.56
24.81
22.10
14.26
1.13
-16.03
-34.40
-50.30
-60.29
-62.36
-56.78
-45.99
-33.64
-23.15
-16.45
-13.46
-12.48
-11.25
-7.99
-1.88
6.93
17.77
29.75
41.90
53.06
61.96
67.50
69.09
66.97
62.08
55.73
49.05
42.87
37.67
33.63
30.66
28.22
25.30
20.66
13.38
3.29
-8.86
-21.78
-34.22
-45.35
-54.73
-61.91
-66.12
-66.28
-61.55
-52.07
-39.24
-25.43
-13.10
-3.85
2.08
5.75
8.91
13.29
20.05
29.46
40.93
53.24
64.79
74.01
79.81
81.86
80.92
78.82
78.13
81.47
90.40
104.41
120.30
132.56
134.91
122.52
94.06
52.67
5.25
-39.71
-74.71
-95.42
-101.38
-95.46
-82.40
-67.31
-54.42
-46.42
-44.30
-47.49
-54.23
-62.14
-68.80
-72.22
-71.27
-65.76
-56.38
-44.44
-31.57
-19.22
-8.33
0.93
9.07
16.79
24.32
31.05
35.74
37.24
35.47
31.94
29.22
29.68
33.90
39.99
44.10
42.05
31.34
12.38
-11.49
-35.31
-54.25
-65.21
-67.52
-62.77
-54.02
-44.77
-38.07
-35.79
-38.37
-44.57
-51.73
-56.27
-54.85
-45.58
-29.10
-8.83
9.96
21.90
23.65
15.32
0.50
-15.21
-26.37
-29.67
-24.83
-14.06
-0.75
12.00
22.11
28.53
30.80
28.74
22.46
12.69
1.07
-10.10
-18.61
-23.20
-24.10
-22.73
-20.89
-19.80
-19.58
-19.32
-17.65
-13.24
-5.41
5.63
18.61
31.26
40.69
44.14
39.84
27.81
10.02
-10.10
-28.60
-42.21
-49.06
-48.99
-43.27
-34.18
-24.44
-16.73
-13.29
-15.43
-23.09
-34.82
-47.85
-58.81
-64.65
-63.54
-55.45
-42.15
-26.38
-10.98
2.10
12.12
19.48
25.27
30.74
36.97
44.39
52.55
60.03
64.75
64.61
58.36
46.23
29.97
12.25
-4.25
-17.72
-27.65
-34.60
-39.70
-44.08
-48.38
-52.66
-56.53
-59.27
-60.06
-58.08
-52.55
-42.76
-28.20
-8.92
14.03
38.36
60.73
77.60
86.44
86.63
79.78
69.16
58.47
50.64
46.81
46.13
46.12
43.81
36.88
24.66
8.42
-9.26
-25.62
-38.91
-49.01
-57.16
-65.12
-73.99
-83.59
-92.44
-98.43
-99.60
-94.79
-83.99
-68.32
-49.86
-31.19
-14.79
-2.30
5.96
10.83
13.80
16.17
18.46
20.46
21.62
21.57
20.25
17.65
13.57
7.60
-0.30
-9.18
-16.87
-20.53
-17.78
-7.93
7.61
25.80
43.20
57.10
66.17
70.38
70.52
67.71
63.13
57.94
53.15
49.47
47.07
45.54
44.14
42.15
39.25
35.71
32.16
29.10
26.60
24.08
20.57
15.35
8.33
0.32
-7.23
-12.73
-15.21
-14.66
-12.10
-9.26
-7.77
-8.60
-11.70
-16.16
-20.76
-24.61
-27.60
-30.29
-33.50
-37.62
-42.20
-46.01
-47.46
-45.44
-39.92
-32.09
-24.14
-18.47
-16.71
-19.09
-24.14
-29.19
-31.11
-27.22
-15.92
2.97
28.18
57.07
85.93
110.38
126.21
130.43
122.35
104.19
80.71
57.83
40.84
32.55
32.51
37.44
42.65
44.00
39.35
28.95
14.92
0.07
-13.21
-23.41
-29.82
-32.11
-30.08
-23.75
-13.51
-0.19
15.18
31.70
48.62
65.15
79.92
90.82
95.38
91.76
79.69
61.03
39.19
18.09
0.77
-11.48
-19.20
-24.28
-29.08
-35.71
-45.40
-58.27
-73.25
-88.26
-100.58
-107.51
-107.19
-99.15
-84.58
-66.01
-46.51
-28.80
-14.45
-3.62
4.57
11.41
17.72
23.29
26.84
26.41
20.31
8.12
-8.64
-26.44
-40.67
-47.22
-44.08
-32.22
-15.24
2.22
16.38
25.50
29.99
31.40
31.11
29.67
26.94
22.90
18.30
14.68
13.54
15.51
19.87
24.82
28.30
28.88
26.17
20.78
13.80
6.32
-1.08
-8.42
-16.20
-25.05
-35.28
-46.63
-58.26
-68.91
-77.34
-82.62
-84.32
-82.40
-77.15
-69.07
-58.82
-47.31
-35.56
-24.43
-14.35
-5.24
3.35
11.80
20.04
27.44
33.07
36.31
37.22
36.70
36.10
36.53
38.33
40.82
42.53
41.89
37.90
30.75
22.12
14.90
12.48
17.49
30.70
50.08
70.92
86.96
92.33
83.79
62.11
32.02
0.77
-24.49
-39.02
-42.00
-36.30
-26.96
-19.03
-15.69
-17.51
-22.87
-29.35
-35.10
-39.52
-43.20
-47.01
-51.24
-55.06
-56.73
-54.21
-46.00
-31.95
-13.48
6.54
24.52
37.23
42.92
42.06
37.10
31.48
28.21
28.83
33.08
39.62
46.76
53.27
58.34
61.30
61.29
57.28
48.54
35.22
18.50
0.50
-16.26
-29.47
-37.48
-39.61
-36.24
-28.75
-19.20
-9.79
-2.29
2.47
4.74
5.49
5.99
7.10
9.04
11.44
13.79
15.82
17.65
19.41
20.82
20.93
18.51
12.87
4.65
-4.05
-10.60
-13.27
-12.35
-10.19
-10.00
-14.00
-22.12
-31.89
-39.69
-42.45
-38.92
-30.13
-18.63
-7.34
1.53
6.95
8.96
8.31
5.97
2.96
0.30
-1.04
-0.24
2.85
7.33
10.85
10.12
2.11
-14.34
-37.08
-60.81
-78.56
-84.51
-76.38
-56.39
-30.11
-4.06
16.95
31.17
39.57
44.25
46.79
47.46
45.62
40.74
33.16
24.23
15.58
8.32
2.65
-1.99
-6.34
-10.91
-15.70
-20.49
-25.10
-29.68
-34.70
-40.62
-47.46
-54.48
-60.13
-62.42
-59.58
-50.78
-36.69
-19.43
-2.03
12.52
22.28
26.91
27.54
26.21
25.00
25.29
27.52
31.28
35.47
38.86
40.32
39.22
35.72
31.03
27.36
27.32
32.95
44.47
59.36
72.47
77.41
68.91
45.30
9.72
-30.40
-65.73
-88.15
-93.44
-82.44
-60.42
-34.92
-13.20
-0.23
2.26
-4.51
-17.46
-32.88
-47.28
-57.82
-62.38
-59.83
-50.38
-36.08
-20.68
-8.55
-2.81
-3.54
-7.45
-9.22
-4.12
9.72
30.57
54.07
75.30
90.71
98.64
98.82
91.37
76.42
54.44
27.13
-2.28
-29.53
-50.61
-63.07
-66.70
-63.22
-55.49
-46.45
-38.50
-33.24
-31.55
-33.70
-39.31
-47.14
-54.96
-59.78
-58.57
-49.48
-32.82
-11.52
9.55
25.05
30.96
26.06
12.16
-6.51
-24.81
-38.23
-44.16
-42.31
-34.34
-23.06
-11.28
-0.99
6.92
12.53
16.27
18.30
18.44
16.35
12.10
6.49
1.04
-2.64
-3.40
-0.99
4.00
10.58
17.83
25.16
32.14
38.29
42.88
45.04
44.13
40.16
33.91
26.71
19.95
14.61
10.84
8.03
5.16
1.23
-4.37
-11.56
-19.63
-27.46
-33.87
-38.06
-39.89
-39.86
-38.70
-36.99
-34.70
-31.30
-26.04
-18.51
-8.96
1.66
12.06
20.99
27.72
32.17
34.85
36.71
38.99
42.90
49.28
58.08
67.94
76.35
80.14
76.63
64.69
45.43
21.99
-1.41
-20.69
-33.09
-37.76
-35.70
-29.22
-21.13
-13.96
-9.38
-7.81
-8.55
-10.14
-11.04
-10.31
-7.95
-4.80
-2.01
-0.46
-0.36
-1.09
-1.51
-0.04
4.97
14.72
29.15
46.15
61.41
69.56
66.37
51.02
27.29
2.43
-15.79
-22.53
-17.97
-6.89
3.78
8.27
4.18
-7.10
-21.83
-35.92
-46.42
-52.14
-53.28
-50.84
-46.07
-40.33
-34.80
-30.32
-26.91
-23.66
-19.13
-12.27
-3.50
4.78
8.66
4.34
-10.06
-33.23
-60.74
-86.54
-104.82
-111.84
-106.65
-90.81
-67.45
-40.19
-12.41
13.18
34.56
50.37
59.77
62.57
59.40
51.85
42.42
33.93
28.57
27.04
28.19
29.47
28.07
22.06
11.12
-3.39
-19.00
-32.75
-41.99
-44.84
-40.87
-31.32
-19.08
-7.89
-1.19
-0.81
-6.34
-15.43
-24.87
-31.86
-34.89
-33.98
-30.29
-25.40
-20.68
-16.96
-14.56
-13.37
-13.17
-13.76
-15.10
-17.19
-20.10
-23.75
-27.87
-32.05
-35.68
-37.90
-37.66
-33.95
-26.17
-14.66
-0.82
13.19
25.35
34.72
41.62
47.23
52.45
57.15
60.03
59.52
54.88
46.90
37.75
29.88
24.81
22.32
20.67
17.53
11.07
0.76
-12.47
-26.66
-39.35
-48.27
-51.76
-49.04
-40.43
-27.16
-11.12
5.55
20.95
33.77
43.46
50.20
54.81
58.66
63.44
70.57
80.36
91.29
99.92
102.11
94.74
77.61
54.02
29.57
9.76
-2.59
-8.53
-12.25
-18.71
-30.97
-48.74
-68.67
-86.19
-97.70
-101.90
-99.81
-93.77
-86.01
-77.74
-69.19
-60.16
-50.72
-41.42
-32.92
-25.27
-17.72
-9.12
1.10
12.15
21.64
26.40
23.80
12.91
-4.86
-26.19
-46.88
-62.99
-71.87
-72.47
-65.30
-52.02
-34.85
-16.06
2.36
18.91
32.58
42.82
49.42
52.55
52.70
50.58
46.96
42.48
37.55
32.47
27.51
23.08
19.70
17.80
17.39
17.96
18.47
17.70
14.70
9.17
1.65
-6.61
-13.96
-18.96
-20.79
-19.69
-16.74
-13.54
-11.41
-10.87
-11.39
-11.77
-10.88
-8.41
-5.21
-2.91
-3.12
-6.52
-12.44
-19.01
-24.01
-25.64
-23.31
-17.77
-10.88
-5.18
-3.15
-6.56
-15.80
-29.39
-43.86
-54.25
-55.34
-43.69
-19.35
13.28
46.43
71.49
82.14
76.81
59.18
36.47
16.50
4.75
2.83
8.67
18.09
26.80
31.99
32.82
30.22
26.01
21.91
18.84
16.69
14.71
12.17
9.20
6.95
7.16
11.46
20.80
35.44
54.94
78.08
102.33
123.65
137.06
138.36
126.25
103.51
76.23
51.31
33.35
22.66
15.80
7.88
-4.46
-21.43
-40.47
-58.12
-72.01
-81.82
-88.84
-94.65
-99.98
-104.24
-105.89
-103.28
-95.42
-82.35
-64.82
-44.13
-21.71
0.87
21.71
38.53
48.93
51.15
44.99
32.24
16.45
1.96
-7.60
-10.43
-6.91
0.81
9.83
17.49
21.85
21.77
16.81
7.01
-6.88
-23.15
-39.22
-52.12
-59.36
-59.79
-54.07
-44.39
-33.62
-24.31
-17.86
-14.27
-12.32
-10.22
-6.39
-0.27
7.28
14.13
17.59
15.58
7.54
-5.12
-19.51
-32.36
-41.38
-46.02
-47.36
-47.42
-48.01
-49.98
-53.08
-56.21
-58.12
-57.75
-54.55
-48.38
-39.47
-28.20
-15.07
-0.71
14.05
28.17
40.42
49.67
55.13
56.76
55.57
53.54
53.13
56.26
63.17
71.86
78.53
79.01
70.61
53.54
30.90
7.51
-12.06
-25.10
-31.32
-32.32
-30.39
-27.38
-24.24
-21.00
-17.29
-12.59
-6.59
0.82
9.51
19.17
29.35
39.61
49.51
58.67
66.78
73.65
79.28
83.95
88.12
92.28
96.54
100.26
101.87
99.21
90.26
74.21
52.27
27.60
4.45
-13.35
-23.86
-27.63
-27.19
-25.84
-26.29
-29.94
-36.86
-46.39
-57.61
-69.57
-81.15
-91.01
-97.67
-99.90
-97.12
-89.60
-78.42
-65.14
-51.52
-39.16
-29.33
-22.96
-20.60
-22.58
-28.92
-39.18
-52.06
-65.25
-75.53
-79.50
-74.79
-60.99
-40.01
-15.33
9.26
30.95
48.47
61.78
71.33
77.27
79.44
77.70
72.45
64.73
55.88
46.94
38.29
29.54
19.99
9.13
-2.97
-15.38
-26.33
-33.64
-35.42
-31.00
-21.48
-9.66
0.99
7.69
9.50
7.60
4.47
2.57
3.22
6.23
10.30
13.92
16.03
16.12
14.16
10.19
4.29
-3.32
-12.07
-21.05
-29.11
-35.27
-38.97
-40.23
-39.49
-37.27
-33.88
-29.33
-23.48
-16.22
-7.67
1.96
12.66
24.79
38.89
55.12
72.54
88.74
100.15
103.01
94.83
75.55
47.93
16.96
-11.53
-32.57
-43.43
-44.27
-37.84
-28.45
-20.56
-17.52
-20.66
-29.15
-40.43
-51.04
-57.58
-57.58
-49.98
-35.26
-15.32
7.06
28.86
47.63
62.20
72.91
81.24
88.73
95.96
102.01
104.97
103.20
96.58
86.92
77.05
69.18
63.45
57.69
48.51
33.13
10.95
-15.97
-43.62
-67.58
-84.43
-92.56
-92.19
-84.94
-73.12
-59.04
-44.62
-31.08
-18.95
-8.14
1.96
12.30
23.85
37.02
51.04
63.59
71.16
70.08
58.18
36.05
7.36
-22.07
-46.21
-61.01
-65.64
-62.42
-55.34
-48.05
-42.32
-37.75
-32.60
-25.23
-15.23
-3.66
7.60
17.08
24.45
30.59
36.77
43.69
50.80
56.52
59.07
57.52
52.35
45.35
38.76
34.21
32.13
31.60
30.98
28.64
23.48
15.12
3.72
-10.19
-25.75
-41.72
-56.48
-68.17
-75.24
-77.05
-74.27
-68.84
-63.22
-59.51
-58.62
-60.14
-62.77
-65.20
-66.62
-66.92
-66.20
-64.25
-60.33
-53.52
-43.49
-31.14
-18.62
-8.62
-3.21
-3.05
-7.02
-12.64
-16.70
-16.12
-8.61
6.52
27.92
52.12
74.28
89.74
95.70
92.42
83.10
72.51
64.81
61.85
62.52
63.65
61.67
54.36
41.75
25.90
9.96
-3.18
-11.80
-15.86
-16.65
-16.10
-15.99
-17.33
-20.05
-23.14
-24.93
-23.40
-16.68
-3.68
15.16
37.34
58.62
74.16
80.40
76.61
65.38
51.44
39.44
31.76
27.60
23.69
16.32
3.38
-14.59
-34.72
-53.20
-66.84
-73.99
-74.83
-70.86
-64.45
-58.12
-54.06
-53.57
-56.64
-61.83
-66.43
-67.23
-61.40
-47.55
-26.38
-0.84
24.52
44.68
55.52
55.02
43.83
25.30
4.61
-12.59
-21.66
-20.19
-8.48
10.71
33.11
54.05
69.58
77.09
75.61
65.71
49.25
29.10
8.61
-9.01
-21.49
-28.04
-29.37
-27.29
-23.81
-20.43
-17.76
-15.69
-13.83
-12.05
-10.59
-9.97
-10.70
-12.86
-16.10
-19.69
-22.87
-25.15
-26.56
-27.61
-29.16
-32.03
-36.70
-43.14
-50.72
-58.45
-65.26
-70.16
-72.44
-71.63
-67.49
-59.92
-49.20
-36.00
-21.45
-6.94
6.14
16.73
24.30
28.85
31.07
32.40
35.02
41.45
53.43
70.59
89.61
104.57
108.76
97.46
70.18
31.38
-10.89
-47.76
-72.59
-82.82
-80.12
-68.99
-54.67
-41.26
-30.69
-22.79
-16.06
-8.81
-0.20
9.40
18.74
26.54
32.31
36.57
40.50
45.11
50.77
57.18
63.96
71.21
79.31
88.19
96.51
101.51
100.12
90.63
74.14
54.48
36.69
24.70
19.48
18.88
18.92
15.94
8.24
-3.62
-17.66
-31.75
-44.54
-55.46
-64.14
-69.98
-72.17
-70.14
-64.26
-56.01
-47.51
-40.59
-35.99
-33.01
-30.10
-25.89
-20.19
-14.38
-10.99
-12.68
-21.13
-36.24
-55.93
-76.47
-93.36
-102.50
-101.32
-89.68
-70.02
-46.69
-24.56
-7.59
2.37
5.78
4.92
2.69
1.61
3.11
7.50
14.21
22.24
30.38
37.34
41.96
43.30
40.96
35.23
27.13
18.21
10.22
4.66
2.44
3.72
7.82
13.35
18.32
20.59
18.38
10.89
-1.22
-15.91
-30.29
-41.52
-47.81
-48.86
-45.89
-41.02
-36.42
-33.70
-33.55
-35.87
-40.10
-45.47
-51.17
-56.38
-60.36
-62.38
-61.86
-58.40
-51.77
-41.90
-28.97
-13.61
2.89
18.56
31.30
39.63
43.53
44.57
45.24
47.71
52.63
58.67
63.13
63.29
57.81
47.44
34.56
22.08
12.07
5.05
0.18
-3.92
-8.06
-11.85
-13.67
-11.41
-3.53
9.98
27.38
45.59
61.32
72.16
77.23
77.29
74.12
69.85
66.56
66.06
69.82
78.34
90.49
102.97
111.07
110.20
98.02
75.79
48.06
20.83
-0.99
-15.41
-23.67
-28.88
-34.19
-41.19
-49.60
-57.98
-64.73
-68.83
-69.95
-68.32
-64.32
-58.37
-50.92
-42.50
-33.83
-25.65
-18.51
-12.62
-7.75
-3.40
0.80
4.71
7.42
7.34
2.86
-6.68
-20.18
-34.54
-45.38
-48.63
-42.17
-26.75
-5.76
16.25
35.33
49.43
58.50
63.73
66.42
67.18
66.01
62.79
57.88
52.22
46.97
42.97
40.31
38.45
36.52
33.76
29.76
24.42
17.81
10.09
1.57
-7.09
-15.01
-21.17
-24.92
-26.32
-26.11
-25.44
-25.30
-26.09
-27.61
-29.39
-31.07
-32.62
-34.06
-35.04
-34.58
-31.30
-24.09
-12.94
0.60
13.89
24.34
30.53
32.82
32.94
32.90
33.88
35.68
37.00
36.38
33.01
27.06
19.46
11.26
3.23
-4.14
-10.20
-13.58
-12.41
-5.20
7.88
24.31
39.73
49.55
50.89
43.83
31.14
16.79
3.88
-6.61
-15.84
-25.96
-38.65
-54.04
-70.69
-86.17
-98.02
-104.46
-104.75
-99.20
-88.91
-75.35
-59.86
-43.52
-27.10
-11.48
2.31
13.33
21.19
26.62
31.42
37.66
46.49
57.16
67.04
72.72
71.67
63.59
50.38
35.15
20.51
7.44
-4.73
-17.22
-30.64
-44.13
-55.69
-63.05
-64.63
-60.06
-50.12
-36.32
-20.54
-4.76
9.12
19.54
25.63
27.49
26.17
23.44
21.12
20.47
21.59
23.39
23.87
20.80
12.74
-0.27
-16.39
-32.50
-45.19
-51.89
-51.63
-45.09
-33.98
-20.24
-5.50
9.07
22.52
33.81
41.75
45.31
44.08
38.49
29.73
19.26
8.19
-3.05
-14.61
-26.80
-39.63
-52.57
-64.72
-75.09
-83.02
-88.18
-90.51
-90.08
-87.08
-81.85
-74.92
-66.69
-57.16
-45.76
-31.64
-14.38
5.50
26.27
45.59
61.33
72.31
78.58
81.04
80.86
78.85
75.32
70.17
63.18
54.41
44.38
34.08
24.87
18.09
14.60
14.58
17.47
22.29
28.22
34.91
42.43
51.20
62.04
76.18
95.15
119.91
149.70
181.03
208.17
225.19
228.55
218.96
201.03
180.77
162.25
145.57
127.15
102.15
67.58
24.23
-23.62
-70.24
-110.80
-142.85
-166.32
-182.35
-192.36
-197.27
-197.67
-194.36
-188.66
-182.31
-176.99
-173.79
-172.75
-172.98
-173.09
-171.78
-168.24
-162.42
-154.92
-146.75
-138.90
-132.00
-126.19
-121.35
-117.57
-115.71
-117.16
-123.12
-133.54
-146.49
-158.40
-165.40
-164.89
-156.61
-142.54
-125.71
-108.72
-92.74
-77.54
-62.35
-46.73
-31.19
-16.91
-5.18
3.34
8.92
12.66
15.97
19.99
25.16
31.06
36.71
41.12
43.81
45.19
46.44
49.08
54.18
62.01
71.92
82.72
93.23
102.74
110.98
118.01
123.85
128.39
131.49
133.08
133.22
131.98
129.16
124.21
116.38
105.07
90.26
72.63
53.45
34.21
16.29
0.75
-11.74
-20.93
-26.99
-30.42
-31.93
-32.18
-31.44
-29.44
-25.56
-19.17
-10.22
0.55
11.70
21.66
29.20
34.05
36.80
38.73
41.38
45.99
53.15
62.55
72.79
81.62
86.56
85.86
79.32
68.52
56.27
45.31
37.09
31.22
26.09
20.10
12.87
5.54
-0.02
-2.54
-2.25
-0.82
-0.30
-1.96
-5.58
-9.79
-13.04
-14.58
-14.86
-15.08
-16.42
-19.26
-23.04
-26.60
-28.95
-29.76
-29.55
-29.38
-30.37
-33.10
-37.33
-42.05
-45.82
-47.27
-45.59
-40.77
-33.53
-25.07
-16.59
-8.88
-2.18
3.75
9.18
14.13
18.18
20.65
20.97
19.02
15.32
10.76
6.27
2.43
-0.64
-3.26
-5.85
-8.79
-12.25
-16.27
-20.70
-25.18
-29.23
-32.13
-33.18
-31.85
-28.09
-22.25
-15.09
-7.48
-0.15
6.42
12.06
16.64
20.09
22.24
22.96
22.22
20.23
17.43
14.36
11.50
9.07
7.02
5.08
2.89
0.13
-3.39
-7.67
-12.54
-17.58
-22.15
-25.42
-26.56
-24.99
-20.62
-13.93
-5.89
2.41
10.03
16.47
21.54
25.27
27.66
28.65
28.13
26.09
22.78
18.73
14.65
11.21
8.80
7.41
6.60
5.67
3.95
1.11
-2.75
-7.05
-10.92
-13.50
-14.23
-12.93
-9.75
-5.03
0.96
8.15
16.60
26.34
36.99
47.65
57.01
63.76
67.19
67.74
66.95
66.90
69.42
75.28
84.12
94.69
105.48
115.10
122.40
126.24
125.74
120.79
112.60
103.71
96.76
92.92
90.80
86.92
77.62
61.58
41.30
22.32
10.79
10.45
20.92
38.27
57.26
73.89
86.70
96.37
104.18
110.57
114.60
114.42
