1636380196.00
64.000000
-0.00
-0.00
-0.00
-0.00
-0.00
-0.00
-0.00
-0.00
-0.00
-0.00
0.00
0.01
0.01
-0.00
-0.03
-0.05
-0.05
0.00
0.13
0.36
0.66
1.01
1.37
1.72
2.06
2.40
2.79
3.24
3.80
4.42
5.06
5.66
6.20
6.68
7.15
7.68
8.31
9.14
10.09
11.04
11.88
12.56
13.14
13.76
14.65
15.96
17.91
20.32
22.90
25.38
27.58
29.57
31.68
34.32
37.81
42.54
48.15
54.10
59.83
64.97
69.58
74.14
79.34
85.71
93.76
103.00
112.62
121.73
129.77
136.75
143.30
150.75
157.77
166.64
177.95
191.79
206.97
220.57
228.25
225.36
208.53
176.87
132.76
80.05
23.07
-34.94
-92.44
-149.16
-205.23
-260.37
-313.74
-363.87
-409.83
-450.91
-486.50
-515.74
-537.23
-549.22
-549.96
-538.37
-514.21
-478.67
-433.88
-382.45
-327.02
-269.84
-212.63
-156.66
-102.95
-52.37
-5.90
35.58
71.43
101.35
125.50
144.38
158.69
169.15
176.37
180.75
182.57
182.07
179.51
175.23
169.65
163.18
156.15
148.81
141.30
133.69
126.02
118.33
110.69
103.16
95.80
88.68
81.83
75.25
68.95
62.95
57.25
51.86
46.78
42.03
37.59
33.45
29.61
26.07
22.81
19.83
17.11
14.67
12.48
10.54
8.83
7.35
6.07
4.97
4.05
3.27
2.62
2.09
1.65
1.30
1.01
0.79
0.61
0.47
0.37
0.29
0.23
0.19
0.17
0.16
0.16
0.17
0.19
0.21
0.24
0.28
0.32
0.36
0.40
0.45
0.50
0.55
0.59
0.65
0.70
0.76
0.83
0.90
0.97
1.06
1.15
1.26
1.37
1.50
1.65
1.82
2.00
2.21
2.44
2.69
2.97
3.27
3.61
3.98
4.39
4.82
5.30
5.81
6.36
6.95
7.59
8.26
8.99
9.75
10.57
11.42
12.33
13.27
14.28
15.34
16.47
17.66
18.91
20.19
21.47
22.68
23.74
24.54
24.97
24.89
24.18
22.79
20.64
17.78
14.25
10.15
5.69
1.06
-3.52
-7.81
-11.63
-14.83
-17.28
-18.95
-19.84
-20.02
-19.57
-18.62
-17.30
-15.71
-13.97
-12.14
-10.26
-8.36
-6.39
-4.39
-2.39
-0.38
1.62
3.60
5.56
7.51
9.52
11.67
13.93
16.29
18.77
21.34
23.99
26.73
29.55
32.55
35.85
39.29
42.83
46.42
50.06
53.70
57.37
61.11
65.10
69.62
74.49
79.63
84.98
90.42
95.78
100.93
105.81
110.58
115.60
120.57
125.34
129.61
132.88
134.38
133.18
128.15
117.76
105.07
91.14
76.65
61.91
46.85
31.18
14.54
-3.20
-21.82
-40.69
-59.69
-78.52
-96.95
-114.94
-132.75
-150.96
-170.50
-192.42
-217.22
-244.73
-272.79
-297.61
-314.78
-320.90
-314.93
-298.63
-275.81
-250.89
-227.78
-208.77
-194.47
-184.28
-176.68
-169.41
-159.65
-144.53
-121.94
-91.65
-55.45
-16.75
20.44
52.65
77.78
95.26
105.73
110.42
110.66
107.67
102.52
96.15
89.36
82.77
76.80
71.64
67.29
63.62
60.54
58.01
56.09
54.82
54.12
53.69
52.98
51.31
48.13
43.20
36.77
29.57
22.54
16.50
11.84
8.32
5.25
1.82
-2.53
-7.81
-13.51
-18.89
-23.37
-26.76
-29.36
-31.76
-34.68
-38.82
-44.77
-52.81
-62.52
-72.49
-80.19
-82.48
-76.70
-61.71
-38.59
-10.40
18.85
45.48
67.08
82.75
92.62
97.25
97.17
92.90
85.21
75.32
64.78
55.08
47.23
41.56
37.74
35.07
32.89
30.85
29.03
27.77
27.39
27.89
28.78
29.20
28.22
25.24
20.22
13.80
6.95
0.67
-4.46
-8.43
-11.78
-15.21
-19.26
-24.04
-29.14
-33.91
-37.79
-40.61
-42.65
-44.55
-47.14
-51.22
-57.42
-65.82
-75.59
-84.80
-90.60
-89.98
-80.91
-63.21
-38.84
-11.33
15.45
38.44
56.06
68.14
75.26
78.16
77.35
73.20
66.21
57.27
47.54
38.26
30.39
24.49
20.61
18.45
17.59
17.64
18.24
19.10
19.86
20.10
19.45
17.63
14.62
10.67
6.12
1.32
-3.56
-8.54
-13.67
-18.99
-24.35
-29.47
-34.10
-38.12
-41.67
-45.11
-48.95
-53.73
-59.96
-67.96
-77.43
-87.14
-94.88
-97.96
-94.06
-82.29
-63.61
-40.54
-16.17
7.00
27.70
45.84
61.78
75.62
86.79
94.27
97.13
95.00
88.35
78.31
66.40
54.28
43.49
35.29
30.55
29.60
32.19
37.49
44.16
50.62
55.27
56.87
54.64
48.45
38.71
26.15
11.82
-3.21
-17.87
-31.26
-42.76
-52.13
-59.49
-65.25
-70.00
-74.41
-79.18
-84.94
-92.02
-100.02
-107.57
-112.27
-111.38
-102.65
-85.38
-60.79
-31.76
-1.95
25.27
47.60
63.99
74.39
79.24
79.21
75.04
67.63
58.14
47.92
38.32
30.42
24.84
21.60
20.22
19.89
19.76
19.31
18.42
17.33
16.36
15.61
14.76
13.22
10.37
5.87
-0.12
-7.01
-13.99
-20.31
-25.57
-29.76
-33.25
-36.65
-40.70
-46.15
-53.62
-63.21
-74.22
-84.82
-92.35
-93.94
-87.50
-72.63
-50.84
-25.16
0.85
24.16
42.85
56.21
64.34
67.70
66.96
62.97
56.84
49.89
43.33
37.98
34.05
31.30
29.20
27.36
25.62
24.06
22.87
22.07
21.43
20.40
18.34
14.70
9.21
2.08
-6.14
-14.70
-22.94
-30.54
-37.72
-45.17
-53.94
-64.92
-78.42
-93.57
-108.24
-119.33
-123.55
-118.54
-103.65
-80.34
-51.67
-21.39
7.31
32.62
54.32
73.37
91.08
108.51
126.19
144.24
162.60
181.22
199.91
218.17
235.04
249.12
258.81
262.61
259.32
248.18
228.89
201.78
167.99
129.53
89.07
49.35
12.47
-20.56
-49.93
-76.64
-101.96
-126.85
-151.56
-175.53
-197.27
-214.55
-224.70
-225.18
-214.36
-192.17
-160.46
-122.84
-83.85
-47.91
-18.29
3.47
17.59
25.64
29.83
32.24
34.39
37.05
40.36
44.24
48.65
53.72
59.58
66.12
72.83
78.91
83.55
86.29
87.27
87.12
86.78
87.18
89.15
93.43
100.68
111.31
125.04
140.43
154.57
163.52
163.30
151.42
128.01
96.07
60.58
26.73
-1.76
-23.60
-39.48
-50.87
-58.60
-62.11
-59.77
-49.90
-31.89
-6.60
23.82
56.67
89.11
118.36
141.56
155.80
158.51
148.21
125.15
91.53
51.15
8.39
-32.74
-69.25
-99.55
-123.14
-140.48
-152.49
-160.31
-164.86
-166.44
-164.54
-157.89
-145.01
-124.77
-96.92
-62.29
-22.69
19.33
60.60
97.39
125.77
141.99
143.47
129.50
101.59
63.17
18.77
-26.93
-69.91
-107.09
-136.59
-157.68
-170.84
-177.53
-179.73
-179.20
-176.76
-171.93
-163.09
-148.21
-125.63
-94.92
-57.31
-15.66
26.15
64.16
95.32
118.02
132.04
137.81
135.60
125.13
105.76
77.47
41.66
1.35
-39.36
-76.53
-107.40
-130.87
-147.17
-156.97
-160.53
-157.26
-145.96
-125.49
-95.49
-56.87
-11.87
36.26
83.68
126.43
160.64
182.95
190.86
183.28
160.83
125.93
82.46
35.04
-11.82
-54.49
-90.67
-119.56
-141.74
-158.65
-172.12
-183.63
-193.88
-202.58
-208.63
-210.62
-207.19
-197.39
-180.78
-157.60
-128.88
-96.74
-64.46
-36.22
-16.52
-9.28
-16.94
-39.96
-76.67
-123.84
-177.51
-234.08
-291.09
-347.36
-402.13
-453.82
-499.10
-533.04
-550.55
-548.58
-527.80
-492.72
-450.15
-406.60
-366.17
-329.81
-296.17
-263.31
-229.99
-196.06
-162.23
-129.77
-100.43
-76.57
-60.87
-55.31
-60.03
-72.63
-88.62
-102.80
-111.12
-111.75
-105.20
-93.42
-78.60
-62.52
-46.33
-30.83
-16.70
-4.40
5.97
14.89
23.13
31.52
40.55
50.29
60.52
70.94
81.47
92.21
103.31
114.78
126.42
137.86
148.80
159.33
169.97
181.53
194.71
209.71
226.01
242.69
258.64
273.23
286.48
299.14
312.48
328.16
347.97
373.30
404.08
437.74
468.73
489.55
493.03
475.16
436.84
383.88
324.72
267.35
216.85
174.66
139.67
110.04
84.69
63.64
47.36
36.03
29.19
26.02
25.86
28.35
33.14
39.37
45.24
48.08
45.04
33.97
14.09
-13.82
-47.67
-84.45
-120.71
-152.82
-177.48
-192.40
-197.09
-193.38
-185.09
-176.92
-172.88
-175.14
-183.74
-197.32
-214.18
-232.85
-252.00
-269.76
-283.33
-289.35
-284.92
-268.82
-242.03
-207.37
-168.29
-127.75
-87.60
-48.63
-11.08
24.87
59.09
91.73
123.39
155.28
188.94
225.87
266.93
311.50
356.98
398.81
431.17
448.64
448.16
430.48
400.25
364.21
328.52
296.34
267.21
238.30
206.95
172.74
137.91
106.08
80.10
60.66
46.30
34.82
24.67
15.44
7.16
-0.94
-11.07
-26.05
-47.62
-74.90
-104.09
-129.62
-146.12
-150.35
-141.90
-122.88
-96.65
-66.56
-35.23
-4.28
25.36
52.98
77.64
97.95
112.16
118.58
116.24
105.49
88.12
67.01
45.39
25.85
9.69
-3.20
-13.71
-22.77
-30.70
-37.11
-41.45
-43.76
-45.16
-47.51
-52.64
-61.26
-72.45
-84.06
-93.69
-99.93
-102.94
-104.24
-105.80
-109.16
-114.87
-122.78
-132.51
-143.66
-155.66
-167.18
-175.73
-177.91
-170.40
-151.24
-120.84
-82.14
-39.87
0.89
36.05
63.34
82.40
94.20
100.28
102.14
100.96
97.65
93.00
87.80
82.85
78.87
76.31
75.21
75.20
75.67
76.03
75.92
75.26
74.23
73.06
71.87
70.59
68.90
66.34
62.44
56.80
49.26
39.90
29.06
17.28
5.18
-6.72
-18.15
-29.15
-40.16
-51.98
-65.64
-81.97
-100.97
-121.20
-139.60
-151.95
-154.04
-143.06
-118.72
-83.45
-41.72
1.31
41.13
74.76
100.82
119.23
130.65
136.02
136.47
133.23
127.67
121.16
114.87
109.61
105.63
102.71
100.38
98.23
96.13
94.27
92.94
92.21
91.68
90.49
87.62
82.35
74.55
64.86
54.33
44.05
34.71
26.37
18.55
10.49
1.55
-8.47
-19.28
-30.22
-40.52
-49.65
-57.50
-64.58
-71.94
-80.95
-92.80
-107.73
-124.46
-139.82
-149.39
-148.67
-134.71
-107.36
-69.57
-26.56
15.83
52.77
81.58
101.79
114.66
122.25
126.81
130.18
133.59
137.42
140.97
142.80
141.15
134.83
123.89
109.89
95.46
83.50
76.20
74.45
77.82
84.81
93.46
101.73
107.92
110.91
110.42
106.99
101.88
96.59
92.20
88.83
85.57
80.92
73.56
63.12
50.29
36.37
22.53
9.19
-3.90
-17.08
-30.28
-42.86
-53.97
-63.07
-70.11
-75.17
-77.94
-77.37
-72.09
-61.26
-45.53
-27.23
-9.84
3.29
10.01
9.92
4.10
-5.62
-17.38
-29.76
-41.89
-53.29
-63.64
-72.61
-79.93
-85.52
-89.58
-92.55
-94.76
-96.22
-96.37
-94.30
-89.20
-80.78
-69.57
-56.70
-43.48
-30.77
-18.80
-7.23
4.40
16.28
28.24
39.87
50.90
61.16
70.54
78.71
85.11
89.20
90.72
89.95
87.24
82.34
73.88
59.73
38.27
10.03
-21.42
-50.17
-70.05
-77.13
-71.37
-56.34
-37.47
-19.65
-5.67
3.96
10.04
13.44
14.51
13.35
10.61
7.69
6.34
7.57
10.92
14.47
15.80
13.36
7.36
-0.24
-6.81
-10.30
-10.17
-7.43
-3.98
-1.53
-0.95
-2.09
-4.16
-6.26
-7.78
-8.49
-8.61
-8.68
-9.64
-12.66
-18.87
-28.70
-41.27
-54.18
-63.95
-67.22
-62.05
-48.87
-30.34
-10.27
7.80
21.81
31.38
37.33
40.73
42.40
42.71
41.94
40.52
38.99
37.74
36.60
34.73
30.94
24.38
15.15
4.54
-5.23
-11.88
-13.97
-11.53
-6.06
0.06
4.47
5.60
3.02
-2.75
-10.62
-19.42
-27.97
-35.26
-40.50
-43.41
-44.45
-44.76
-45.70
-48.13
-51.84
-55.52
-57.33
-55.79
-50.49
-42.24
-32.52
-22.74
-13.62
-5.19
2.82
10.40
17.05
22.07
25.09
26.47
27.18
28.21
29.74
30.79
29.53
24.23
14.48
1.78
-10.74
-19.55
-22.19
-18.38
-10.00
-0.27
7.65
11.86
12.16
9.75
6.48
4.00
3.23
4.29
6.69
9.72
12.80
15.59
17.91
19.46
19.77
18.26
14.56
8.93
2.37
-3.58
-7.40
-8.20
-5.99
-1.62
3.68
8.79
13.04
16.23
18.45
19.90
20.69
20.76
19.92
17.85
14.25
9.01
2.29
-5.38
-13.18
-20.25
-25.84
-29.50
-31.18
-31.16
-29.94
-28.10
-26.25
-24.93
-24.56
-25.44
-27.64
-30.99
-35.03
-39.14
-42.60
-44.76
-45.18
-43.82
-41.04
-37.66
-34.78
-33.47
-34.39
-37.63
-42.56
-48.06
-52.78
-55.50
-55.29
-51.66
-44.54
-34.32
-21.75
-7.92
5.86
18.34
28.43
35.39
38.86
38.87
35.77
30.26
23.29
15.91
9.05
3.36
-0.94
-4.04
-6.37
-8.41
-10.49
-12.70
-14.92
-16.99
-18.83
-20.52
-22.29
-24.40
-27.04
-30.27
-34.00
-38.00
-41.93
-45.41
-48.14
-49.92
-50.80
-50.97
-50.72
-50.25
-49.62
-48.82
-47.83
-46.70
-45.50
-44.19
-42.38
-39.36
-34.25
-26.48
-16.14
-4.16
7.95
18.56
26.51
31.38
33.46
33.36
31.67
28.72
24.58
19.24
12.81
5.59
-1.95
-9.35
-16.23
-22.42
-27.92
-32.79
-37.16
-40.96
-43.99
-45.95
-46.60
-45.99
-44.54
-42.85
-41.49
-40.63
-40.07
-39.35
-38.10
-36.23
-34.04
-31.92
-30.11
-28.41
-26.24
-22.94
-18.11
-11.97
-5.40
0.30
3.90
4.67
2.75
-0.90
-4.70
-6.89
-5.98
-1.14
7.49
18.85
31.18
42.57
51.48
57.27
60.24
61.33
61.57
61.59
61.30
60.16
57.58
53.40
48.06
42.44
37.41
33.44
30.42
27.84
25.11
21.98
18.64
15.61
13.35
11.89
10.86
9.69
8.08
6.28
5.11
5.67
8.77
14.68
22.91
32.30
41.22
47.72
49.68
45.16
33.12
14.10
-9.44
-33.61
-54.29
-68.68
-76.27
-78.85
-79.42
-80.75
-84.17
-89.25
-94.28
-97.14
-95.98
-89.47
-76.84
-57.81
-32.77
-3.03
28.95
59.64
85.07
101.69
107.28
101.75
87.20
67.39
46.62
28.40
14.45
4.34
-4.02
-13.25
-25.28
-40.52
-57.86
-75.38
-91.19
-104.22
-114.29
-121.75
-126.91
-129.73
-129.72
-126.20
-118.77
-107.43
-92.77
-75.91
-58.35
-41.70
-27.37
-16.17
-8.04
-2.17
2.61
7.26
12.12
16.80
20.57
22.86
23.68
23.78
24.34
26.56
31.11
37.82
45.69
53.19
58.76
61.22
60.00
54.97
46.32
34.57
20.65
6.04
-7.31
-17.44
-22.92
-23.49
-20.12
-14.64
-8.89
-4.02
0.01
4.18
9.79
17.74
28.01
39.54
50.72
59.89
65.93
68.41
67.55
63.88
58.00
50.50
41.94
32.87
23.76
14.67
5.31
-4.86
-16.08
-27.84
-38.64
-46.47
-49.63
-47.53
-41.06
-32.07
-22.37
-12.68
-2.22
10.78
28.04
50.15
76.15
103.77
130.37
153.61
171.83
183.82
188.35
184.04
169.83
145.73
113.44
76.37
38.58
3.47
-27.41
-54.49
-79.27
-102.78
-124.30
-141.14
-149.52
-146.30
-130.38
-103.30
-68.68
-30.96
5.97
39.46
68.11
91.27
108.39
118.81
122.04
118.20
108.36
94.22
77.26
57.95
35.40
8.11
-24.56
-61.03
-96.89
-125.98
-142.47
-143.26
-129.13
-104.34
-74.65
-45.13
-18.62
4.25
24.06
41.21
55.37
65.62
71.33
72.65
70.39
65.07
56.15
41.76
19.63
-11.39
-50.06
-92.52
-133.19
-166.48
-188.33
-197.04
-193.20
-178.95
-157.12
-130.65
-102.17
-73.75
-46.81
-22.06
0.34
20.48
38.39
53.89
66.61
76.22
82.39
84.77
82.88
76.18
64.44
48.14
28.68
8.12
-11.45
-28.47
-42.17
-52.53
-59.84
-64.45
-66.71
-66.96
-65.56
-62.78
-58.69
-53.07
-45.73
-36.70
-26.51
-15.96
-5.91
3.11
10.97
17.72
23.37
27.65
30.18
30.68
29.16
26.08
22.15
18.09
14.36
10.90
7.00
1.49
-6.76
-18.21
-32.10
-46.34
-58.11
-64.87
-65.33
-60.06
-51.14
-41.20
-32.33
-25.31
-19.68
-14.29
-8.21
-1.27
5.86
12.07
16.48
18.87
19.74
19.92
19.99
19.72
18.09
13.72
5.88
-4.98
-17.00
-27.63
-34.72
-37.34
-36.11
-32.59
-28.38
-24.30
-20.26
-15.66
-10.06
-3.67
2.83
8.76
13.93
18.75
23.76
29.08
34.11
37.66
38.55
36.23
31.14
24.51
17.86
12.40
8.75
6.97
6.84
8.11
10.58
14.00
17.86
21.36
23.48
23.29
20.41
15.17
8.71
2.52
-2.02
-4.11
-3.72
-1.54
1.41
4.14
5.95
6.59
6.20
5.12
3.73
2.28
0.77
-0.91
-2.90
-5.16
-7.43
-9.38
-10.87
-12.03
-13.27
-15.04
-17.44
-20.19
-22.77
-24.76
-26.08
-27.01
-27.94
-29.04
-30.10
-30.74
-30.74
-30.27
-29.89
-30.24
-31.59
-33.61
-35.55
-36.52
-35.84
-33.09
-28.11
-20.80
-11.16
0.42
13.02
25.12
35.06
41.55
44.14
43.25
39.90
35.21
30.02
24.90
20.23
16.49
14.14
13.57
14.77
17.24
20.00
21.95
22.14
20.15
16.15
10.81
5.00
-0.52
-5.38
-9.56
-13.28
-16.74
-19.96
-22.77
-24.89
-26.14
-26.47
-26.07
-25.23
-24.25
-23.41
-22.82
-22.48
-22.18
-21.68
-20.73
-19.33
-17.68
-16.24
-15.51
-15.88
-17.47
-19.92
-22.38
-23.54
-21.95
-16.49
-6.94
5.73
19.50
31.91
40.92
45.56
46.08
43.61
39.45
34.54
29.31
23.87
18.36
13.14
8.69
5.40
3.36
2.37
1.98
1.78
1.45
0.93
0.33
-0.14
-0.26
0.11
0.92
1.91
2.64
2.57
1.31
-1.24
-4.80
-8.79
-12.49
-15.34
-17.13
-17.99
-18.38
-18.84
-19.77
-21.31
-23.25
-25.23
-26.88
-28.00
-28.64
-29.09
-29.73
-30.88
-32.78
-35.49
-38.83
-42.22
-44.52
-44.17
-39.53
-29.56
-14.44
4.33
24.24
42.61
57.44
67.83
73.91
76.36
75.96
73.34
69.01
63.64
58.08
53.18
49.50
46.99
45.11
43.03
40.04
35.96
31.15
26.33
22.22
19.20
17.19
15.75
14.30
12.39
9.87
6.90
3.76
0.76
-1.93
-4.40
-7.02
-10.22
-14.37
-19.44
-24.93
-29.99
-33.72
-35.48
-35.29
-33.77
-31.94
-30.82
-31.01
-32.60
-35.16
-37.94
-39.93
-39.98
-36.90
-29.69
-18.00
-2.42
15.53
33.71
50.14
63.57
73.64
80.70
85.22
87.38
86.97
83.76
77.81
69.78
60.72
51.71
43.47
36.20
29.71
23.69
17.99
12.71
8.10
4.35
1.43
-0.95
-3.26
-5.92
-9.11
-12.72
-16.44
-19.87
-22.74
-24.93
-26.57
-27.86
-29.09
-30.46
-32.08
-33.87
-35.64
-37.08
-37.90
-37.92
-37.13
-35.71
-33.94
-32.12
-30.48
-29.17
-28.29
-27.90
-28.07
-28.73
-29.57
-29.85
-28.52
-24.41
-16.78
-5.69
7.80
21.91
34.63
44.36
50.31
52.52
51.59
48.26
43.22
37.08
30.44
23.98
18.33
13.94
10.90
8.92
7.59
6.46
5.34
4.23
3.24
2.51
2.10
2.01
2.13
2.34
2.54
2.72
2.98
3.53
4.60
6.28
8.50
10.89
12.98
14.31
14.63
13.88
12.25
9.98
7.35
4.56
1.73
-1.06
-3.78
-6.40
-8.98
-11.68
-14.65
-18.04
-21.85
-25.93
-29.93
-33.49
-36.20
-37.83
-38.26
-37.53
-35.81
-33.32
-30.29
-26.88
-23.15
-19.10
-14.71
-10.04
-5.25
-0.54
3.89
7.92
11.55
14.76
17.60
20.07
22.19
24.04
25.69
27.22
28.63
29.81
30.64
30.94
30.58
29.49
27.64
25.01
21.69
17.81
13.67
9.66
6.15
3.35
1.18
-0.76
-2.97
-5.91
-9.66
-13.97
-18.25
-21.92
-24.60
-26.33
-27.45
-28.38
-29.38
-30.46
-31.35
-31.74
-31.32
-29.77
-26.67
-21.49
-13.76
-3.35
9.11
22.28
34.31
43.53
49.00
50.85
50.04
47.83
45.23
42.66
40.03
37.15
33.98
30.76
27.88
25.63
24.06
23.00
22.17
21.26
20.10
18.64
16.99
15.34
13.87
12.61
11.32
9.61
7.13
3.82
0.06
-3.57
-6.45
-8.39
-9.65
-10.78
-12.23
-14.15
-16.32
-18.40
-20.32
-22.42
-25.28
-29.35
-34.60
-40.30
-45.29
-48.48
-49.27
-47.76
-44.61
-40.68
-36.68
-33.04
-30.03
-27.82
-26.55
-26.29
-26.96
-28.42
-30.60
-33.67
-38.03
-44.05
-51.71
-60.41
-69.12
-76.74
-82.55
-86.45
-88.76
-89.90
-89.97
-88.72
-85.77
-80.98
-74.71
-67.76
-61.05
-55.16
-50.18
-45.76
-41.44
-36.95
-32.42
-28.20
-24.68
-22.04
-20.14
-18.63
-17.11
-15.33
-13.26
-11.15
-9.38
-8.22
-7.54
-6.56
-3.97
1.69
11.43
25.21
41.91
59.63
76.36
90.62
101.77
109.86
115.34
118.80
120.79
121.84
122.52
123.24
124.08
124.70
124.43
122.59
118.95
113.94
108.67
104.57
102.89
104.14
107.89
112.80
116.99
118.61
116.54
110.73
102.14
92.12
81.79
71.49
60.62
48.06
32.66
13.68
-9.01
-34.88
-62.85
-91.44
-119.13
-144.81
-168.38
-191.15
-215.41
-243.16
-274.39
-305.91
-331.55
-344.01
-337.63
-310.91
-267.29
-214.04
-159.70
-111.24
-72.39
-43.41
-22.19
-5.78
8.51
22.63
37.71
54.15
71.41
87.82
100.82
107.54
105.74
94.67
75.53
51.09
24.95
0.58
-19.16
-32.17
-37.12
-33.56
-22.28
-5.58
12.81
28.53
37.88
38.99
32.32
20.39
6.78
-5.04
-12.55
-14.47
-10.54
-1.20
12.66
29.71
48.18
66.01
81.17
92.08
98.08
99.48
97.43
93.48
89.02
85.05
82.19
80.93
81.78
85.07
90.51
96.76
101.56
102.30
96.90
84.53
65.59
41.20
12.58
-19.24
-53.08
-87.12
-118.56
-143.97
-160.32
-166.07
-161.89
-150.39
-135.08
-119.02
-103.80
-89.34
-74.53
-58.30
-40.47
-22.09
-5.00
9.05
19.13
25.40
28.80
30.45
31.01
30.51
28.56
24.80
19.20
12.26
4.79
-2.33
-8.36
-12.79
-15.37
-15.90
-14.20
-9.92
-2.35
9.61
27.47
52.91
87.40
131.73
185.45
246.46
310.76
372.65
425.39
462.47
479.06
473.25
446.51
403.19
349.09
289.71
229.09
169.35
111.08
54.12
-1.76
-56.27
-108.43
-156.50
-198.18
-231.08
-253.39
-264.53
-265.38
-258.07
-245.31
-229.60
-212.79
-196.02
-180.00
-165.26
-152.22
-141.03
-131.43
-122.77
-114.34
-105.61
-96.50
-87.39
-78.94
-71.80
-66.23
-62.01
-58.50
-54.83
-50.35
-44.90
-38.90
-33.21
-28.75
-26.14
-25.41
-26.07
-27.21
-27.99
-27.90
-27.01
-25.93
-25.55
-26.76
-30.06
-35.57
-42.87
-50.97
-58.13
-61.88
-59.41
-48.48
-28.44
-1.01
29.90
59.39
83.15
98.86
106.68
108.49
106.72
103.12
98.49
92.92
86.49
79.68
73.31
68.10
64.23
61.34
58.66
55.49
51.58
47.13
42.64
38.53
34.92
31.57
28.01
23.86
19.02
13.79
8.69
4.17
0.48
-2.49
-5.10
-7.75
-10.66
-13.86
-17.13
-20.21
-22.93
-25.36
-27.74
-30.49
-33.90
-38.02
-42.42
-46.15
-47.87
-46.17
-40.05
-29.31
-14.72
2.09
19.10
34.42
46.68
55.28
60.27
62.10
61.39
58.71
54.59
49.55
44.15
38.96
34.40
30.67
27.74
25.34
23.18
21.01
18.77
16.45
14.11
11.71
9.17
6.37
3.28
-0.02
-3.37
-6.63
-9.72
-12.70
-15.67
-18.67
-21.66
-24.53
-27.14
-29.39
-31.33
-33.13
-35.06
-37.32
-40.05
-43.18
-46.34
-48.85
-49.63
-47.43
-41.15
-30.31
-15.40
2.03
19.72
35.40
47.43
55.20
59.05
59.84
58.45
55.45
51.20
46.04
40.49
35.21
30.80
27.51
25.16
23.26
21.25
18.79
15.86
12.68
9.60
6.86
4.55
2.52
0.52
-1.74
-4.43
-7.51
-10.74
-13.70
-15.99
-17.34
-17.75
-17.47
-16.96
-16.67
-16.96
-17.95
-19.52
-21.45
-23.44
-25.34
-27.17
-29.10
-31.33
-33.94
-36.82
-39.56
-41.48
-41.66
-39.13
-33.06
-23.17
-9.99
5.14
20.30
33.52
43.38
49.38
51.83
51.55
49.40
45.97
41.67
36.79
31.78
27.18
23.43
20.65
18.64
16.99
15.27
13.26
10.99
8.64
6.40
4.34
2.38
0.38
-1.80
-4.17
-6.62
-8.96
-11.00
-12.63
-13.90
-15.04
-16.37
-18.22
-20.74
-23.82
-27.11
-30.17
-32.58
-34.21
-35.23
-36.09
-37.31
-39.24
-41.91
-44.91
-47.43
-48.31
-46.32
-40.41
-30.10
-15.81
1.11
18.64
34.60
47.24
55.61
59.64
59.94
57.46
53.15
47.84
42.23
36.88
32.21
28.41
25.45
23.08
20.96
18.78
16.35
13.67
10.81
7.93
5.11
2.38
-0.30
-3.00
-5.75
-8.50
-11.18
-13.71
-16.12
-18.45
-20.83
-23.36
-26.03
-28.74
-31.24
-33.32
-34.89
-36.07
-37.22
-38.82
-41.26
-44.74
-49.05
-53.49
-56.79
-57.34
-53.51
-44.23
-29.50
-10.62
10.09
29.91
46.50
58.58
65.97
69.33
69.58
67.54
63.76
58.65
52.63
46.27
40.17
34.83
30.52
27.22
24.66
22.48
20.36
18.12
15.76
13.39
11.16
9.11
7.10
4.80
1.88
-1.82
-6.20
-10.88
-15.28
-18.93
-21.58
-23.32
-24.52
-25.63
-27.00
-28.80
-30.97
-33.30
-35.56
-37.52
-39.09
-40.27
-41.27
-42.37
-43.91
-46.16
-49.13
-52.44
-55.23
-56.19
-53.86
-47.03
-35.21
-18.99
-0.04
19.34
36.82
50.67
60.11
65.22
66.68
65.27
61.73
56.67
50.72
44.55
38.83
34.05
30.35
27.58
25.34
23.23
21.00
18.58
16.06
13.50
11.01
8.59
6.22
3.85
1.40
-1.21
-4.05
-7.10
-10.26
-13.32
-16.05
-18.28
-20.00
-21.33
-22.57
-24.01
-25.87
-28.17
-30.72
-33.17
-35.18
-36.60
-37.54
-38.40
-39.61
-41.53
-44.21
-47.38
-50.36
-52.16
-51.54
-47.28
-38.52
-25.21
-8.33
10.23
28.07
43.09
53.93
60.30
62.72
62.08
59.18
54.62
48.88
42.50
36.20
30.74
26.70
24.26
23.09
22.55
21.93
20.75
18.91
16.63
14.23
11.96
9.84
7.69
5.28
2.43
-0.81
-4.25
-7.63
-10.69
-13.30
-15.41
-17.13
-18.67
-20.33
-22.37
-24.95
-27.93
-30.93
-33.49
-35.26
-36.22
-36.74
-37.47
-39.04
-41.84
-45.80
-50.34
-54.46
-56.75
-55.70
-50.05
-39.21
-23.60
-4.79
14.89
32.95
47.37
57.17
62.37
63.75
62.33
58.98
54.36
48.94
43.19
37.65
32.85
29.13
26.49
24.65
23.14
21.55
19.74
17.77
15.86
14.20
12.81
11.50
9.99
8.01
5.48
2.50
-0.71
-3.91
-6.91
-9.65
-12.16
-14.53
-16.84
-19.21
-21.77
-24.62
-27.82
-31.30
-34.84
-38.14
-40.89
-42.95
-44.45
-45.80
-47.58
-50.31
-54.26
-59.24
-64.44
-68.47
-69.54
-65.89
-56.38
-41.00
-21.05
1.04
22.44
40.64
54.16
62.70
66.86
67.67
66.09
62.79
58.21
52.75
46.96
41.43
36.71
33.10
30.59
28.84
27.46
26.10
24.57
22.83
20.90
18.77
16.42
13.75
10.75
7.42
3.83
0.12
-3.54
-6.96
-9.94
-12.38
-14.31
-15.94
-17.60
-19.63
-22.27
-25.52
-29.16
-32.82
-36.13
-38.79
-40.71
-42.00
-42.93
-43.92
-45.47
-47.96
-51.48
-55.64
-59.41
-61.24
-59.38
-52.42
-39.84
-22.37
-1.87
19.09
37.90
52.67
62.52
67.63
68.85
67.26
63.83
59.20
53.82
48.10
42.50
37.49
33.45
30.51
28.45
26.88
25.33
23.49
21.36
19.11
16.98
15.11
13.42
11.66
9.52
6.73
3.28
-0.70
-4.85
-8.77
-12.16
-14.86
-16.97
-18.77
-20.57
-22.70
-25.26
-28.17
-31.12
-33.76
-35.78
-37.10
-37.86
-38.44
-39.28
-40.77
-43.15
-46.39
-50.10
-53.41
-55.04
-53.49
-47.47
-36.44
-20.91
-2.53
16.39
33.53
47.22
56.70
62.05
63.82
62.63
58.99
53.42
46.56
39.22
32.33
26.61
22.44
19.79
18.34
17.66
17.40
17.27
17.12
16.84
16.29
15.34
13.83
11.58
8.49
4.59
0.12
-4.44
-8.56
-11.80
-13.98
-15.28
-16.16
-17.13
-18.55
-20.53
-22.93
-25.48
-27.93
-30.17
-32.33
-34.64
-37.39
-40.81
-44.93
-49.48
-53.73
-56.48
-56.18
-51.38
-41.28
-26.17
-7.58
12.06
30.09
44.42
54.00
58.84
59.71
57.68
53.73
48.61
42.91
37.20
31.97
27.60
24.27
21.87
20.04
18.29
16.24
13.75
10.97
8.24
5.97
4.32
3.14
2.01
0.43
-1.95
-5.14
-8.80
-12.40
-15.42
-17.57
-18.89
-19.70
-20.50
-21.70
-23.52
-25.87
-28.43
-30.80
-32.70
-34.14
-35.36
-36.75
-38.69
-41.36
-44.68
-48.26
-51.34
-52.82
-51.43
-46.08
-36.22
-22.25
-5.55
11.86
27.87
40.87
50.04
55.35
57.17
56.07
52.60
47.33
40.93
34.17
27.77
22.19
17.54
13.61
10.09
6.74
3.56
0.69
-1.76
-3.86
-5.90
-8.21
-10.99
-14.14
-17.20
-19.57
-20.58
-19.66
-16.33
-10.16
-0.91
11.28
25.56
40.33
53.53
63.16
67.83
67.14
61.48
51.73
39.06
24.96
11.53
1.49
-2.31
2.09
14.76
33.51
54.36
72.78
85.07
89.18
84.79
72.70
54.16
30.42
2.68
-27.73
-59.26
-90.06
-118.32
-142.53
-161.81
-176.03
-185.84
-192.43
-197.14
-201.12
-204.99
-208.75
-211.86
-213.59
-213.35
-210.93
-206.61
-200.92
-194.51
-187.88
-181.49
-175.88
-172.01
-171.14
-174.51
-182.67
-195.07
-210.01
-225.11
-237.91
-246.22
-248.34
-242.95
-229.29
-207.43
-178.66
-145.46
-110.99
-78.02
-48.00
-20.64
5.83
33.78
65.11
100.35
138.15
175.49
208.46
233.51
248.95
255.89
258.27
261.74
271.94
292.47
323.48
361.32
399.56
430.97
449.72
453.13
442.27
421.18
395.30
369.50
346.80
327.76
310.95
293.76
273.31
247.19
213.99
173.56
127.27
77.92
29.31
-14.64
-50.79
-77.62
-95.49
-106.27
-112.52
-116.46
-119.23
-120.75
-120.10
-116.36
-109.20
-99.17
-87.51
-75.72
-65.14
-56.74
-50.97
-47.71
-46.24
-45.44
-44.08
-41.35
-37.13
-32.12
-27.42
-24.06
-22.49
-22.38
-22.89
-23.14
-22.59
-21.36
-20.02
-19.39
-20.11
-22.34
-25.73
-29.54
-32.98
-35.50
-37.01
-37.81
-38.49
-39.59
-41.55
-44.58
-48.73
-53.66
-58.49
-61.60
-60.90
-54.42
-41.25
-22.19
0.34
22.95
42.48
57.02
66.17
70.73
71.92
70.77
67.87
63.60
58.42
52.98
47.97
43.79
40.45
37.56
34.57
31.08
27.03
22.70
18.54
14.90
11.84
9.10
6.14
2.47
-2.18
-7.63
-13.35
-18.67
-23.06
-26.40
-29.00
-31.46
-34.46
-38.51
-43.74
-49.76
-55.51
-59.40
-59.60
-54.59
-43.77
-27.85
-8.76
10.89
28.62
42.72
52.49
58.06
59.93
58.63
54.67
48.69
41.57
34.43
28.32
23.87
21.07
19.36
17.91
15.95
13.16
9.63
5.80
2.12
-1.17
-4.17
-7.28
-11.00
-15.63
-21.11
-26.98
-32.58
-37.37
-41.16
-44.21
-47.16
-50.73
-55.49
-61.61
-68.75
-75.98
-81.82
-84.42
-81.91
-73.05
-57.65
-36.89
-13.16
10.61
31.72
48.36
59.83
66.42
68.90
68.15
64.94
59.92
53.84
47.46
41.55
36.61
32.73
29.62
26.79
23.84
20.61
17.29
14.11
11.15
8.14
4.58
-0.05
-5.94
-12.88
-20.27
-27.35
-33.58
-38.79
-43.32
-47.85
-53.29
-60.37
-69.31
-79.47
-89.19
-95.97
-97.16
-90.73
-76.10
-54.36
-28.07
-0.42
25.56
47.71
64.95
77.09
84.49
87.74
87.48
84.47
79.56
73.70
67.81
62.52
58.15
54.57
51.44
48.36
45.12
41.76
38.49
35.52
32.82
30.06
26.72
22.27
16.51
9.67
2.39
-4.51
-10.39
-15.08
-18.93
-22.61
-26.78
-31.73
-37.31
-42.98
-48.13
-52.41
-55.87
-58.99
-62.48
-67.05
-73.18
-80.80
-89.03
-96.16
-99.76
-97.38
-87.33
-69.34
-44.97
-17.16
10.57
35.14
54.69
68.70
77.66
82.49
84.03
82.81
79.25
73.86
67.43
60.91
55.17
50.72
47.62
45.44
43.63
41.75
39.63
37.41
35.34
33.54
31.86
29.91
27.28
23.72
19.26
14.19
8.87
3.60
-1.53
-6.51
-11.38
-16.07
-20.46
-24.42
-27.96
-31.26
-34.60
-38.18
-42.01
-45.86
-49.34
-52.10
-54.05
-55.43
-56.75
-58.65
-61.66
-65.98
-71.29
-76.61
-80.34
-80.43
-74.96
-62.77
-44.03
-20.48
5.00
29.17
49.33
64.01
73.02
77.13
77.41
74.84
70.14
63.88
56.71
49.40
42.76
37.37
33.48
30.87
29.11
27.69
26.30
24.83
23.29
21.73
20.09
18.21
15.88
13.00
9.57
5.72
1.63
-2.51
-6.57
-10.40
-13.94
-17.11
-19.92
-22.45
-24.84
-27.32
-30.09
-33.29
-36.89
-40.71
-44.40
-47.59
-50.04
-51.72
-52.90
-54.12
-56.00
-59.14
-63.81
-69.74
-75.89
-80.39
-80.95
-75.45
-62.73
-43.19
-18.85
7.15
31.51
51.61
66.11
74.96
78.91
79.07
76.41
71.67
65.47
58.50
51.53
45.37
40.55
37.14
34.77
32.77
30.55
27.85
24.86
21.98
19.59
17.77
16.23
14.53
12.19
9.00
4.95
0.28
-4.62
-9.31
-13.34
-16.45
-18.63
-20.21
-21.78
-23.92
-26.97
-30.88
-35.19
-39.27
-42.58
-44.90
-46.45
-47.73
-49.40
-52.06
-56.04
-61.29
-67.17
-72.36
-75.01
-73.12
-65.18
-50.73
-30.75
-7.49
16.11
37.24
53.93
65.32
71.56
73.35
71.56
66.96
60.32
52.51
44.54
37.39
31.78
27.90
25.42
23.67
22.03
20.20
18.21
16.41
15.09
14.25
13.61
12.61
10.75
7.74
3.72
-0.82
-5.24
-9.02
-11.97
-14.35
-16.74
-19.76
-23.78
-28.70
-34.06
-39.18
-43.47
-46.74
-49.19
-51.40
-54.08
-57.83
-62.96
-69.17
-75.41
-79.94
-80.57
-75.29
-62.98
-43.97
-20.14
5.61
30.06
50.62
65.86
75.49
80.11
80.62
77.95
72.92
66.28
58.86
51.54
45.12
40.04
36.33
33.52
30.96
28.06
24.67
21.11
17.96
15.72
14.46
13.65
12.36
9.70
5.22
-0.84
-7.60
-13.91
-18.77
-21.74
-23.03
-23.48
-24.25
-26.44
-30.60
-36.44
-42.63
-47.02
-47.18
-41.26
-28.75
-10.90
9.39
28.40
42.61
49.87
50.04
44.94
37.54
30.79
26.50
24.80
24.39
23.43
20.59
15.73
9.98
5.27
3.56
6.20
13.50
24.67
37.97
51.18
62.11
69.04
71.10
68.19
60.85
49.83
35.85
19.53
1.44
-17.65
-36.77
-54.73
-70.42
-83.00
-92.09
-97.84
-100.67
-100.91
-98.25
-91.54
-78.97
-58.83
-30.50
4.80
44.06
83.11
117.84
145.27
164.21
175.20
179.92
180.52
178.87
176.30
173.44
170.36
166.71
161.87
155.16
145.88
133.51
117.73
98.54
76.30
51.70
25.70
-0.66
-26.49
-51.24
-74.69
-96.86
-117.67
-136.74
-153.36
-166.65
-176.02
-181.34
-182.99
-181.60
-177.72
-171.63
-163.31
-152.67
-139.74
-124.69
-107.86
-89.71
-70.87
-52.19
-34.72
-19.53
-7.47
1.19
6.74
9.85
11.31
11.62
10.94
9.12
6.03
1.87
-2.70
-6.55
-8.44
-7.33
-2.81
4.84
14.62
25.21
35.36
44.33
52.14
59.60
68.03
78.66
91.77
105.99
118.00
123.06
116.20
93.79
54.79
1.36
-61.40
-126.38
-185.88
-233.30
-264.71
-279.80
-281.85
-276.51
-269.88
-266.52
-268.29
-274.44
-282.64
-290.20
-294.78
-294.38
-287.05
-270.90
-244.77
-209.06
-166.20
-120.14
-75.07
-34.08
1.57
32.12
58.44
80.89
98.93
111.39
117.31
116.68
110.75
101.67
91.76
82.79
75.57
70.01
65.44
61.12
56.53
51.52
46.19
40.63
34.69
27.88
19.49
8.80
-4.81
-21.71
-42.11
-66.06
-93.26
-122.65
-151.95
-177.67
-195.59
-201.95
-194.57
-173.64
-141.71
-102.89
-61.78
-22.34
12.64
41.65
64.22
80.54
91.22
97.03
98.80
97.51
94.12
89.72
85.34
81.82
79.52
78.15
76.90
74.72
70.75
64.70
56.84
47.91
38.73
29.79
21.06
11.92
1.39
-11.64
-27.92
-47.36
-68.66
-89.15
-105.12
-112.62
-108.59
-91.90
-63.85
-27.87
11.47
49.71
83.52
111.21
132.49
147.88
158.02
163.35
164.12
160.68
153.84
144.98
135.80
127.84
121.91
117.85
114.72
111.37
106.98
101.45
95.41
89.64
84.59
79.97
74.79
67.78
57.92
44.98
29.67
13.41
-2.17
-15.79
-26.98
-36.16
-44.46
-53.34
-64.29
-78.31
-95.55
-114.81
-133.33
-147.07
-151.60
-143.51
-121.67
-87.91
-46.53
-3.05
37.49
71.77
98.61
118.42
132.45
141.81
147.20
148.99
147.55
143.55
137.95
131.82
126.02
121.02
116.86
113.40
110.59
108.51
107.38
107.28
107.84
108.23
107.28
103.85
97.36
87.97
76.63
64.80
53.87
44.68
37.23
30.74
24.06
16.32
7.31
-2.39
-11.69
-19.66
-25.98
-31.20
-36.47
-43.02
-51.54
-61.85
-73.02
-83.74
-92.94
-100.16
-105.70
-110.55
-116.12
-123.87
-134.97
-149.69
-166.80
-183.25
-194.45
-195.41
-182.34
-154.25
-113.55
-65.48
-16.43
28.00
64.34
91.60
110.63
123.05
130.36
133.62
133.60
131.07
126.93
122.16
117.62
113.76
110.66
108.10
105.81
103.73
101.98
100.77
100.15
99.82
99.09
97.16
93.39
87.67
80.51
72.85
65.68
59.65
54.82
50.63
46.21
40.66
33.50
24.81
15.23
5.83
-2.23
-8.06
-11.24
-11.94
-10.72
-8.18
-4.64
-0.00
6.11
13.94
23.24
33.08
42.03
48.55
51.58
50.87
47.08
41.55
35.62
30.18
25.20
19.95
13.42
5.10
-4.58
-14.46
-23.14
-29.70
-34.08
-36.84
-38.73
-40.18
-41.26
-41.87
-42.02
-41.80
-41.16
-39.71
-36.87
-32.28
-26.33
-20.15
-15.19
-12.50
-12.23
-13.71
-15.97
-18.40
-20.93
-23.86
-27.45
-31.45
-35.13
-37.61
-38.38
-37.63
-36.17
-35.06
-35.10
-36.43
-38.53
-40.41
-41.15
-40.20
-37.63
-33.93
-29.82
-26.02
-23.00
-20.92
-19.36
-17.20
-12.60
-3.41
12.06
34.17
61.47
91.06
119.56
144.27
164.01
179.09
190.59
199.33
205.19
207.03
203.13
191.90
172.51
145.20
111.25
72.83
32.70
-6.23
-41.33
-70.70
-93.36
-109.32
-119.29
-124.54
-126.52
-126.77
-126.79
-127.95
-131.29
-137.42
-146.35
-157.50
-169.92
-182.54
-194.53
-205.38
-214.93
-223.35
-230.96
-238.18
-245.21
-251.80
-256.99
-259.24
-256.75
-248.30
-233.85
-214.92
-194.21
-174.66
-158.18
-144.78
-132.48
-118.19
-99.00
-73.43
-41.78
-5.74
32.40
70.36
106.08
137.70
163.49
182.27
193.82
199.22
200.29
198.64
194.65
187.39
175.50
158.73
138.89
119.83
106.11
101.11
105.86
118.72
136.39
155.26
172.70
187.61
200.20
211.20
220.96
228.73
232.58
229.74
217.34
193.28
157.02
109.92
55.17
-2.63
-58.35
-107.17
-145.46
-171.28
-184.48
-186.44
-179.56
-166.74
-150.83
-134.31
-119.01
-105.84
-94.82
-85.19
-75.93
-66.22
-55.89
-45.50
-36.02
-28.42
-23.26
-20.54
-19.71
-19.94
-20.41
-20.48
-19.85
-18.50
-16.65
-14.60
-12.59
-10.75
-8.99
-7.13
-4.98
-2.52
0.10
2.52
4.34
5.26
5.15
4.07
2.22
-0.13
-2.68
-5.14
-7.35
-9.25
-10.96
-12.71
-14.71
-17.05
-19.61
-22.13
-24.39
-26.30
-28.01
-29.73
-31.55
-33.29
-34.55
-34.90
-34.08
-32.03
-28.75
-24.10
-17.83
-9.77
-0.18
10.03
19.49
26.83
31.22
32.66
31.92
30.09
28.08
26.28
24.65
22.97
21.05
18.95
16.92
15.21
13.99
13.21
12.69
12.17
11.44
10.37
9.00
7.37
5.57
3.64
1.60
-0.55
-2.81
-5.13
-7.48
-9.82
-12.10
-14.27
-16.24
-17.97
-19.45
-20.70
-21.83
-23.01
-24.39
-26.10
-28.06
-30.01
-31.58
-32.30
-31.65
-29.12
-24.26
-16.85
-7.10
4.22
15.80
26.12
33.89
38.44
39.87
38.84
36.27
32.92
29.30
25.68
22.30
19.37
17.12
15.59
14.69
14.12
13.55
12.70
11.46
9.87
8.10
6.34
4.70
3.17
1.61
-0.14
-2.19
-4.53
-6.95
-9.21
-11.10
-12.56
-13.74
-14.87
-16.15
-17.68
-19.37
-21.05
-22.50
-23.60
-24.40
-25.11
-26.03
-27.45
-29.47
-31.95
-34.48
-36.41
-36.91
-35.09
-30.23
-22.07
-10.99
1.87
14.88
26.34
34.97
40.25
42.41
42.11
40.14
37.10
33.37
29.28
25.22
21.64
18.94
17.29
16.48
16.13
15.70
14.78
13.19
11.00
8.47
5.94
3.69
1.84
0.35
-1.01
-2.48
-4.25
-6.34
-8.62
-10.84
-12.76
-14.27
-15.47
-16.58
-17.86
-19.45
-21.22
-22.91
-24.20
-24.93
-25.26
-25.59
-26.45
-28.11
-30.54
-33.33
-35.82
-37.22
-36.76
-33.71
-27.57
-18.25
-6.26
7.15
20.26
31.26
38.90
42.77
43.31
41.51
38.35
34.54
30.46
26.29
22.29
18.81
16.25
14.75
14.20
14.14
14.02
13.38
12.06
10.24
8.23
6.40
4.94
3.79
2.73
1.46
-0.26
-2.44
-4.96
-7.52
-9.84
-11.75
-13.23
-14.44
-15.58
-16.88
-18.43
-20.20
-22.03
-23.68
-24.94
-25.75
-26.26
-26.86
-27.95
-29.84
-32.51
-35.61
-38.48
-40.20
-39.76
-36.22
-28.97
-18.04
-4.29
10.64
24.69
35.96
43.30
46.53
46.35
43.87
40.15
35.92
31.54
27.22
23.24
19.91
17.55
16.22
15.68
15.44
14.94
13.80
11.97
9.74
7.57
5.86
4.72
3.94
3.09
1.72
-0.36
-3.01
-5.87
-8.49
-10.51
-11.86
-12.68
-13.31
-14.12
-15.38
-17.18
-19.40
-21.74
-23.85
-25.48
-26.56
-27.33
-28.17
-29.45
-31.37
-33.84
-36.50
-38.80
-40.01
-39.28
-35.75
-28.72
-18.04
-4.38
10.76
25.25
37.05
44.77
48.13
47.80
45.02
41.01
36.58
32.13
27.82
23.83
20.39
17.76
16.06
15.16
14.68
14.17
13.24
11.74
9.76
7.57
5.48
3.78
2.49
1.46
0.38
-1.08
-3.04
-5.41
-7.85
-9.98
-11.51
-12.43
-12.98
-13.56
-14.53
-16.09
-18.21
-20.67
-23.12
-25.22
-26.77
-27.81
-28.62
-29.62
-31.15
-33.36
-36.06
-38.73
-40.51
-40.37
-37.26
-30.46
-19.86
-6.20
8.95
23.57
35.72
44.16
48.51
49.28
47.37
43.73
39.09
33.99
28.88
24.21
20.42
17.74
16.14
15.33
14.94
14.56
13.97
13.05
11.79
10.29
8.62
6.90
5.15
3.31
1.26
-1.12
-3.81
-6.63
-9.25
-11.36
-12.80
-13.66
-14.27
-15.01
-16.18
-17.87
-19.94
-22.09
-24.02
-25.53
-26.60
-27.39
-28.24
-29.46
-31.27
-33.69
-36.44
-38.98
-40.45
-39.73
-35.73
-27.72
-15.76
-0.92
14.84
29.23
40.29
47.02
49.54
48.76
45.86
41.79
37.19
32.39
27.77
23.75
20.74
18.87
17.90
17.28
16.44
15.00
12.99
10.72
8.63
7.01
5.92
5.10
4.15
2.69
0.55
-2.22
-5.25
-8.13
-10.45
-12.07
-13.10
-13.88
-14.85
-16.33
-18.41
-20.87
-23.32
-25.31
-26.63
-27.37
-27.98
-29.05
-31.03
-33.97
-37.44
-40.67
-42.73
-42.76
-40.07
-34.28
-25.32
-13.65
-0.27
13.38
25.73
35.50
42.05
45.49
46.39
45.51
43.42
40.46
36.86
32.88
28.97
25.59
23.05
21.32
20.09
18.86
17.27
15.24
12.96
10.78
8.94
7.46
6.11
4.56
2.55
0.03
-2.83
-5.75
-8.45
-10.73
-12.50
-13.82
-14.84
-15.83
-17.05
-18.65
-20.62
-22.72
-24.65
-26.14
-27.15
-27.89
-28.77
-30.19
-32.41
-35.44
-38.95
-42.27
-44.39
-44.06
-40.09
-31.70
-19.00
-3.20
13.62
29.03
41.00
48.47
51.52
51.02
48.18
44.07
39.40
34.59
29.97
25.85
22.53
20.15
18.70
17.90
17.34
16.62
15.49
13.92
12.05
10.11
8.29
6.63
4.99
3.12
0.83
-1.94
-5.02
-8.05
-10.62
-12.43
-13.36
-13.59
-13.48
-13.48
-14.05
-15.44
-17.70
-20.58
-23.69
-26.57
-28.85
-30.36
-31.15
-31.48
-31.77
-32.44
-33.76
-35.54
-36.97
-36.60
-32.67
-23.71
-9.34
9.41
30.19
50.06
66.57
78.63
86.94
93.73
101.91
114.03
131.38
153.52
178.21
201.86
220.22
229.39
226.80
212.14
187.64
157.56
126.96
100.01
78.76
62.83
50.10
38.03
25.02
11.11
-2.19
-12.55
-17.76
-16.31
-7.78
6.89
25.31
43.91
58.63
66.05
64.61
55.13
40.56
24.75
10.94
0.65
-6.66
-12.89
-20.06
-29.25
-40.36
-52.56
-65.27
-78.73
-93.88
-111.56
-131.65
-152.57
-171.72
-186.35
-194.50
-195.32
-188.90
-175.64
-155.93
-130.17
-99.11
-64.18
-27.38
9.09
43.22
73.27
97.58
114.40
122.03
119.37
106.58
85.44
59.06
30.98
3.98
-20.74
-43.74
-66.65
-90.87
-116.45
-141.36
-161.87
-173.61
-173.11
-158.95
-132.30
-96.47
-55.95
-15.20
22.28
54.26
79.80
98.94
112.40
121.31
126.85
129.68
129.49
124.88
113.82
94.63
67.13
33.14
-3.68
-38.95
-68.94
-91.56
-106.80
-116.26
-122.39
-127.49
-133.22
-140.28
-148.40
-156.54
-163.10
-166.28
-164.56
-157.13
-144.15
-126.76
-106.67
-85.67
-65.14
-45.82
-27.91
-11.33
3.90
17.53
29.06
38.03
44.26
47.97
49.70
50.11
49.78
49.21
48.80
48.93
49.88
51.65
53.91
55.97
57.07
56.65
54.54
50.99
46.45
41.35
35.87
29.97
23.46
16.17
8.01
-0.97
-10.59
-20.47
-30.02
-38.40
-44.71
-48.22
-48.62
-45.99
-40.69
-33.17
-23.90
-13.59
-3.46
4.70
8.74
6.79
-1.91
-16.37
-33.75
-49.87
-60.25
-61.41
-51.95
-33.07
-8.23
17.89
40.76
57.27
66.38
68.94
66.94
62.65
57.93
54.08
51.88
51.78
53.86
57.75
62.59
67.10
69.96
70.19
67.51
62.50
56.45
50.94
47.39
46.55
48.33
51.92
56.14
59.84
62.09
62.24
59.81
54.65
47.09
38.12
29.27
22.04
17.18
14.25
11.65
7.45
0.27
-10.09
-22.71
-36.23
-49.57
-62.38
-74.86
-87.33
-99.91
-112.52
-125.19
-138.22
-152.03
-166.59
-181.03
-193.46
-201.40
-202.62
-195.95
-181.67
-161.47
-137.83
-113.33
-90.08
-69.35
-51.61
-36.59
-23.54
-11.58
-0.01
11.44
22.52
32.54
40.69
46.33
49.19
49.47
47.72
44.67
40.98
37.01
32.63
27.13
19.37
8.37
-5.93
-22.02
-36.87
-46.73
-48.61
-41.67
-27.77
-10.84
4.62
15.22
19.62
18.41
13.26
5.75
-3.21
-13.41
-24.81
-37.08
-49.44
-60.92
-70.62
-77.86
-82.07
-82.64
-78.87
-70.19
-56.50
-38.53
-17.77
3.72
23.93
41.26
54.80
64.41
70.48
73.87
75.64
76.81
78.14
79.80
81.35
81.97
80.86
77.72
72.92
67.39
62.13
57.79
54.40
51.34
47.60
42.14
34.28
24.12
12.76
2.31
-4.47
-5.03
2.07
16.41
35.67
56.29
74.53
87.64
94.39
94.95
90.42
82.15
71.32
58.87
45.64
32.42
19.93
8.64
-1.33
-10.29
-18.78
-27.35
-36.27
-45.50
-54.74
-63.68
-72.20
-80.49
-88.92
-97.82
-107.29
-117.09
-126.75
-135.82
-144.10
-151.62
-158.55
-164.87
-170.12
-173.39
-173.56
-169.73
-161.68
-150.11
-136.58
-123.22
-112.23
-105.36
-103.28
-105.22
-108.75
-110.17
-105.30
-90.69
-64.70
-28.15
15.81
62.61
107.52
146.82
178.42
201.89
217.86
227.46
231.78
231.74
228.19
222.02
214.28
206.02
198.02
190.52
183.20
175.34
166.18
155.32
142.85
129.30
115.24
101.00
86.39
70.85
53.78
35.02
15.09
-4.87
-23.48
-39.73
-53.38
-65.06
-76.05
-87.70
-100.91
-115.80
-131.70
-147.41
-161.66
-173.56
-182.82
-189.86
-195.59
-201.16
-207.53
-214.97
-222.62
-228.33
-228.93
-220.98
-201.76
-170.25
-127.61
-77.09
-23.30
28.90
75.36
113.41
142.08
161.88
174.28
181.07
183.94
184.24
182.94
180.84
178.59
176.68
175.25
174.03
172.50
170.18
166.92
162.98
158.79
154.64
150.36
145.33
138.73
129.92
118.76
105.72
91.71
77.74
64.55
52.35
40.80
29.16
16.64
2.78
-12.35
-28.11
-43.61
-58.01
-70.96
-82.63
-93.63
-104.89
-117.42
-132.03
-149.00
-167.42
-184.91
-197.70
-201.62
-193.50
-172.63
-141.36
-104.45
-67.58
-35.53
-10.98
5.65
15.46
20.02
20.60
18.06
13.11
6.80
0.59
-3.83
-5.00
-2.15
4.51
13.93
24.51
34.63
43.12
49.46
53.73
56.36
57.75
58.01
56.93
54.07
49.07
41.87
32.83
22.69
12.30
2.42
-6.52
-14.45
-21.65
-28.66
-36.27
-45.39
-56.90
-71.15
-87.49
-103.77
-116.41
-121.24
-114.76
-95.51
-64.80
-26.42
14.47
52.87
85.21
109.82
126.67
136.65
140.83
140.12
135.24
127.01
116.53
105.24
94.65
86.06
80.18
76.99
75.84
75.67
75.37
74.06
71.30
67.12
61.82
55.85
49.58
43.11
36.31
28.83
20.31
10.57
-0.28
-11.85
-23.58
-34.93
-45.55
-55.35
-64.63
-74.07
-84.64
-97.36
-112.70
-129.92
-146.66
-159.05
-162.66
-154.00
-131.87
-97.99
-56.61
-13.18
27.27
61.18
86.96
104.62
115.05
119.55
119.42
115.94
110.33
103.69
96.87
90.36
84.33
78.73
73.46
68.53
64.09
60.28
57.11
54.23
50.97
46.52
40.24
32.06
22.56
12.78
3.76
-3.91
-10.40
-16.48
-23.12
-31.06
-40.39
-50.58
-60.70
-69.84
-77.49
-83.75
-89.33
-95.35
-103.16
-113.89
-127.92
-144.22
-159.91
-170.48
-170.86
-157.18
-128.41
-87.10
-38.73
10.04
53.57
88.56
114.29
131.65
141.97
146.34
145.65
141.09
134.54
128.32
124.45
123.96
126.56
130.88
135.24
138.32
139.49
138.84
136.86
134.10
130.97
127.69
124.38
121.19
118.34
116.13
114.79
114.43
115.07
116.74
119.66
124.00
129.47
134.86
137.83
135.36
124.79
104.72
75.53
38.91
-2.90
-47.73
-93.42
-137.17
-175.19
-203.08
-217.23
-216.38
-202.47
-180.06
-154.51
-130.00
-108.34
-89.23
-71.39
-53.93
-37.06
-21.86
-9.53
-0.68
4.94
8.03
9.29
8.98
6.79
2.10
-5.68
-16.84
-31.30
-48.66
-68.41
-89.99
-112.82
-136.23
-159.47
-181.75
-202.49
-221.38
-238.43
-253.82
-267.70
-280.08
-290.66
-298.85
-303.63
-303.55
-296.86
-281.87
-257.61
-224.37
-184.06
-139.92
-95.78
-55.10
-20.18
8.13
30.25
47.23
60.35
70.61
78.78
85.42
91.06
96.26
101.49
106.98
112.67
118.31
123.57
128.28
132.45
136.17
139.45
142.09
143.78
144.23
143.42
141.68
139.59
137.75
136.45
135.57
134.58
132.82
129.75
125.18
119.41
113.11
107.22
102.56
99.48
97.53
95.22
90.22
80.01
62.69
37.91
7.12
-26.66
-59.93
-89.83
-115.04
-135.87
-153.63
-169.65
-184.50
-197.81
-208.71
-216.47
-220.95
-222.60
-222.26
-220.85
-219.27
-218.32
-218.53
-219.73
-220.58
-218.48
-210.06
-192.24
-163.36
-123.87
-76.15
-23.83
29.23
79.62
124.78
162.85
192.68
213.83
226.68
232.61
233.86
233.24
233.58
237.11
244.88
256.34
269.33
280.56
286.37
283.68
270.74
247.47
215.47
177.61
137.44
98.53
63.78
34.86
12.01
-5.73
-19.93
-32.17
-43.45
-54.10
-63.94
-72.64
-79.90
-85.48
-89.07
-90.20
-88.34
-83.28
-75.39
-65.74
-55.90
-47.50
-41.74
-39.06
-38.97
-40.13
-40.57
-38.12
-30.89
-17.85
0.95
24.32
50.23
76.43
100.91
122.18
139.35
151.91
159.56
162.09
159.51
152.07
140.33
125.09
107.25
87.72
67.31
46.78
26.66
7.30
-11.25
-29.08
-46.31
-62.77
-77.80
-90.25
-98.72
-102.10
-100.11
-93.52
-83.99
-73.45
-63.46
-54.97
-48.35
-43.72
-41.12
-40.32
-40.36
-39.10
-33.49
-20.49
1.63
32.21
68.10
104.58
136.93
161.79
177.75
185.23
185.56
180.31
170.83
158.36
144.27
130.05
116.95
105.44
95.06
84.82
73.92
62.45
51.43
42.38
36.50
34.14
34.72
37.06
39.87
41.98
42.25
39.48
32.30
19.55
0.60
-24.21
-53.69
-86.07
-119.51
-152.49
-183.89
-212.78
-238.15
-258.64
-272.61
-278.47
-275.22
-262.79
-242.21
-215.28
-184.03
-150.27
-115.29
-80.01
-45.25
-11.94
18.84
45.97
68.62
86.36
99.28
107.84
112.79
114.89
114.89
113.32
110.57
106.89
102.45
97.45
92.07
86.53
80.96
75.33
69.41
62.78
55.05
45.91
35.42
23.95
12.18
0.88
-9.25
-17.71
-24.29
-29.06
-32.34
-34.74
-37.08
-40.23
-44.83
-50.93
-57.96
-64.85
-70.51
-74.39
-76.62
-77.91
-78.92
-79.75
-79.71
-77.77
-73.23
-66.38
-58.70
-52.27
-48.95
-49.51
-53.47
-59.52
-66.41
-73.56
-81.26
-90.26
-101.14
-113.99
-128.41
-143.77
-159.26
-173.79
-185.88
-193.77
-196.03
-192.31
-183.84
-173.30
-163.94
-158.55
-158.65
-164.19
-173.90
-185.82
-197.79
-207.60
-213.21
-212.91
-205.57
-191.03
-170.19
-144.83
-117.24
-89.77
-64.53
-43.17
-26.83
-16.15
-11.16
-11.29
-15.31
-21.57
-28.41
-34.64
-39.99
-45.14
-51.47
-60.40
-72.69
-87.81
-103.64
-116.68
-122.80
-118.43
-101.87
-74.14
-39.10
-2.41
30.12
54.24
68.30
73.18
71.43
65.98
59.08
51.96
44.98
38.23
31.87
26.28
21.88
18.85
16.96
15.66
14.28
12.26
9.31
5.38
0.49
-5.44
-12.66
-21.48
-32.07
-44.29
-57.85
-72.48
-88.25
-105.38
-123.87
-142.78
-160.02
-172.53
-177.27
-172.33
-157.60
-134.86
-106.88
-76.39
-45.26
-14.09
17.53
50.42
85.12
121.34
157.74
192.06
221.70
244.36
258.58
263.86
260.60
249.82
233.06
212.37
190.30
169.56
152.52
140.54
133.54
130.03
127.59
123.64
116.09
103.76
86.56
65.47
42.28
19.12
-2.16
-20.61
-36.38
-50.51
-64.35
-79.05
-95.21
-113.03
-132.39
-152.76
-172.94
-190.76
-203.22
-207.27
-200.88
-183.93
-158.33
-127.26
-93.86
-60.11
-26.48
7.46
41.88
75.86
107.27
133.45
152.25
162.98
166.51
164.88
160.48
155.32
150.66
147.11
144.87
143.99
144.31
145.40
146.42
146.33
144.19
139.53
132.48
123.63
113.68
103.09
91.92
79.95
66.96
53.00
38.51
24.12
10.43
-2.31
-14.28
-26.20
-39.07
-53.95
-71.36
-90.78
-110.20
-126.25
-134.89
-132.64
-117.74
-90.87
-55.02
-14.56
25.95
62.86
93.94
118.30
135.98
147.48
153.50
154.76
152.11
146.51
139.06
130.93
123.22
116.74
111.90
108.59
106.36
104.58
102.67
100.23
97.07
93.15
88.44
82.85
76.28
68.58
59.65
49.48
38.22
26.16
13.73
1.40
-10.47
-21.66
-32.20
-42.29
-52.30
-62.81
-74.59
-88.37
-104.31
-121.44
-137.30
-148.19
-150.20
-140.49
-118.42
-85.88
-46.73
-5.56
33.53
67.69
95.48
116.56
131.25
140.11
143.92
143.59
140.15
134.65
128.02
120.99
114.03
107.36
101.10
95.30
90.09
85.59
81.89
78.85
76.08
72.97
68.90
63.46
56.65
48.74
40.16
31.21
21.95
12.21
1.83
-9.19
-20.53
-31.67
-42.09
-51.51
-60.00
-68.05
-76.42
-85.96
-97.27
-110.30
-123.97
-136.00
-143.32
-142.84
-132.46
-111.94
-83.09
-49.26
-14.40
18.04
45.77
67.74
83.90
94.68
100.65
102.38
100.51
95.78
89.15
81.69
74.45
68.36
63.97
61.45
60.62
61.09
62.43
64.20
65.98
67.22
67.39
65.97
62.75
57.85
51.74
45.00
38.01
30.83
23.29
15.20
6.66
-1.96
-10.04
-17.09
-22.94
-27.85
-32.42
-37.46
-43.80
-52.05
-62.33
-73.89
-84.87
-92.48
-93.55
-85.47
-67.14
-39.46
-5.08
32.33
69.08
102.29
130.26
152.40
168.96
180.66
188.52
193.82
197.97
202.35
208.08
215.54
224.18
232.39
237.95
238.71
233.34
221.91
205.69
186.58
166.30
145.79
125.16
104.20
82.86
61.57
41.20
22.60
6.22
-8.04
-20.72
-32.38
-43.33
-53.52
-62.65
-70.41
-76.68
-81.64
-85.79
-89.74
-93.94
-98.49
-102.99
-106.62
-108.43
-107.62
-103.87
-97.33
-88.66
-78.69
-68.39
-58.64
-50.17
-43.48
-38.74
-35.75
-34.01
-32.95
-32.13
-31.36
-30.73
-30.40
-30.40
-30.62
-30.84
-30.98
-31.19
-31.81
-33.15
-35.24
-37.68
-39.82
-41.01
-40.98
-40.00
-38.80
-38.28
-39.10
-41.41
-44.71
-48.11
-50.72
-52.02
-52.16
-51.93
-52.45
-54.71
-59.14
-65.38
-72.26
-78.18
-81.53
-81.32
-77.63
-71.93
-66.87
-65.76
-71.62
-86.04
-108.47
-135.99
-164.11
-188.22
-204.99
-213.41
-214.51
-210.40
-202.81
-192.19
-177.88
-159.00
-135.72
-109.88
-84.68
-63.50
-48.69
-40.59
-37.52
-36.24
-33.13
-25.23
-11.29
7.75
28.65
46.70
57.26
57.41
47.19
29.51
8.92
-10.42
-26.30
-39.00
-50.44
-62.68
-76.53
-91.01
-103.70
-111.74
-112.90
-106.08
-91.43
-70.01
-43.43
-13.67
16.97
45.89
70.38
88.06
97.34
97.99
91.33
79.93
66.90
54.96
45.68
39.27
34.89
31.36
27.85
24.25
21.06
18.93
18.07
18.01
17.66
15.81
11.64
5.08
-3.14
-11.90
-20.13
-27.26
-33.26
-38.60
-44.05
-50.42
-58.32
-67.86
-78.35
-88.11
-94.62
-95.20
-87.82
-71.94
-48.92
-21.62
6.38
31.84
52.62
67.86
77.73
82.87
83.99
81.72
76.71
69.75
61.88
54.27
47.93
43.50
40.99
39.92
39.51
39.10
38.36
37.35
36.31
35.35
34.17
32.07
28.22
22.03
13.52
3.37
-7.29
-17.28
-25.76
-32.55
-38.08
-43.22
-49.14
-56.82
-66.73
-78.36
-90.01
-98.96
-102.12
-97.07
-82.99
-61.12
-34.40
-6.49
19.30
40.91
57.59
69.55
77.28
81.17
81.48
78.56
73.12
66.25
59.14
52.74
47.50
43.39
40.18
37.69
36.03
35.42
36.03
37.69
39.66
40.80
39.83
35.84
28.57
18.60
7.19
-4.11
-13.99
-21.78
-27.67
-32.66
-38.19
-45.72
-56.14
-69.21
-83.32
-95.57
-102.46
-100.90
-89.29
-68.18
-40.14
-9.04
21.14
47.37
67.97
82.57
91.58
95.68
95.53
91.84
85.49
77.66
69.64
62.55
57.00
52.97
49.91
47.12
44.14
40.96
37.94
35.54
33.89
32.55
30.58
26.88
20.64
11.76
0.93
-10.60
-21.48
-30.74
-38.12
-44.11
-49.79
-56.46
-65.28
-76.82
-90.60
-104.85
-116.58
-122.22
-118.66
-104.36
-80.13
-48.92
-15.10
17.01
44.14
64.65
78.30
85.68
87.69
85.18
79.08
70.52
60.92
51.75
44.23
38.96
35.84
34.21
33.21
32.21
30.99
29.67
28.48
27.35
25.82
23.03
18.14
10.73
1.04
-10.06
-21.32
-31.66
-40.38
-47.45
-53.42
-59.25
-66.12
-74.98
-86.17
-98.91
-111.10
-119.59
-120.98
-112.79
-94.40
-67.50
-35.54
-2.73
27.21
51.91
70.47
83.16
90.69
93.80
93.00
88.76
81.77
73.14
64.26
56.58
51.14
48.26
47.49
47.81
48.11
47.60
45.98
43.42
40.33
36.97
33.30
28.96
23.48
16.51
8.04
-1.52
-11.45
-20.97
-29.49
-36.77
-42.94
-48.48
-54.01
-60.26
-67.97
-77.69
-89.44
-102.31
-114.26
-122.24
-123.02
-114.23
-95.35
-68.07
-35.87
-3.01
26.73
50.91
68.61
80.16
86.46
88.54
87.23
83.28
77.45
70.65
63.83
57.85
53.25
50.14
48.27
47.19
46.44
45.73
44.95
44.05
43.00
41.62
39.72
37.15
33.92
30.16
26.06
21.69
16.98
11.77
5.93
-0.52
-7.34
-14.16
-20.65
-26.71
-32.54
-38.71
-46.04
-55.36
-67.19
-81.22
-96.01
-108.91
-116.59
-115.96
-105.28
-84.83
-56.97
-25.49
5.59
33.03
54.90
70.68
80.73
85.85
86.90
84.77
80.37
74.69
68.71
63.24
58.78
55.49
53.20
51.69
50.75
50.30
50.28
50.52
50.63
50.03
48.07
44.32
38.76
31.80
24.15
16.49
9.23
2.38
-4.42
-11.57
-19.31
-27.52
-35.74
-43.33
-49.78
-54.97
-59.22
-63.38
-68.55
-75.73
-85.37
-96.85
-108.26
-116.64
-118.77
-112.18
-96.19
-72.26
-43.64
-14.30
12.21
33.66
49.33
59.61
65.30
67.12
65.52
60.91
54.05
46.22
39.05
34.11
32.43
34.11
38.32
43.75
49.03
53.25
56.17
58.24
60.49
64.34
71.23
82.17
97.14
114.65
131.80
144.92
150.61
146.76
133.09
110.92
82.48
50.12
15.85
-18.64
-51.90
-82.65
-110.05
-133.93
-154.69
-172.67
-187.41
-197.22
-199.53
-192.00
-173.80
-146.41
-113.38
-79.28
-48.30
-23.18
-4.93
6.80
13.05
15.06
13.99
11.05
7.50
4.58
3.29
4.12
6.97
11.23
16.13
21.00
25.51
29.65
33.49
36.93
39.53
40.63
39.57
36.03
30.25
22.93
14.98
7.13
-0.30
-7.47
-14.80
-22.66
-31.05
-39.58
-47.59
-54.52
-60.14
-64.73
-69.09
-74.31
-81.54
-91.58
-104.37
-118.60
-131.61
-139.82
-139.73
-129.11
-107.88
-78.27
-44.14
-9.81
21.17
46.61
65.78
78.87
86.46
89.16
87.55
82.37
74.67
65.75
57.07
49.90
45.04
42.63
42.20
42.88
43.70
43.94
43.23
41.53
38.91
35.45
31.06
25.56
18.81
10.81
1.79
-7.78
-17.32
-26.29
-34.28
-41.21
-47.31
-53.03
-59.03
-66.05
-74.73
-85.37
-97.58
-109.90
-119.80
-124.11
-119.91
-105.55
-81.47
-50.21
-15.71
17.83
47.10
70.24
86.80
97.32
102.66
103.68
101.09
95.62
88.10
79.58
71.12
63.74
58.17
54.69
53.19
53.16
53.85
54.45
54.28
52.83
49.86
45.37
39.55
32.64
24.90
16.49
7.49
-2.07
-12.12
-22.45
-32.69
-42.33
-50.83
-57.76
-63.04
-67.04
-70.63
-75.13
-81.93
-91.83
-104.42
-117.61
-127.83
-131.02
-123.91
-105.34
-76.88
-42.40
-6.86
25.20
50.78
68.80
79.72
84.80
85.35
82.40
76.71
69.03
60.28
51.61
44.16
38.75
35.62
34.40
34.23
34.10
33.14
30.80
26.83
21.27
14.41
6.86
-0.23
-5.37
-7.06
-4.34
2.65
12.68
23.82
34.12
42.24
47.60
50.08
49.62
45.84
38.10
25.81
8.91
-11.72
-34.08
-55.29
-72.03
-81.30
-81.24
-71.56
-53.74
-30.59
-5.50
18.40
38.74
54.10
63.95
68.40
68.21
64.64
59.32
54.00
50.12
48.41
48.76
50.36
52.06
52.84
52.17
50.08
46.95
43.11
38.59
33.01
25.86
16.86
6.36
-4.63
-14.73
-22.68
-27.89
-30.75
-32.62
-35.47
-41.27
-51.39
-65.94
-83.55
-101.47
-116.15
-124.20
-123.33
-113.07
-94.75
-70.97
-44.61
-18.07
7.16
30.19
50.15
65.75
75.34
77.56
72.23
60.94
46.81
33.72
25.01
22.46
26.02
34.11
44.62
55.75
66.54
76.87
86.87
96.40
104.59
109.92
110.75
106.17
96.64
84.15
71.79
62.59
58.53
59.76
64.77
71.08
76.22
78.72
78.64
77.77
79.23
86.57
102.22
126.16
155.18
183.60
205.20
215.63
214.20
204.05
190.70
179.71
174.63
175.99
181.62
187.77
190.56
187.28
177.23
162.05
145.19
130.66
121.29
117.46
116.94
115.87
110.64
99.39
82.40
61.47
38.67
15.46
-7.54
-30.10
-52.01
-72.97
-92.86
-111.98
-130.70
-148.82
-164.99
-176.83
-181.73
-178.17
-166.74
-150.36
-133.63
-121.46
-117.57
-123.32
-137.31
-155.89
-174.53
-189.43
-198.94
-203.96
-207.17
-211.64
-219.19
-229.65
-241.06
-250.69
-256.27
-256.74
-252.39
-244.49
-234.69
-224.54
-215.27
-207.56
-201.64
-197.27
-194.09
-191.87
-190.77
-191.26
-193.85
-198.67
-204.96
-210.99
-214.33
-212.60
-204.39
-190.05
-171.79
-153.03
-137.27
-126.74
-121.70
-120.41
-120.01
-117.48
-110.61
-98.39
-80.86
-58.86
-33.65
-6.86
19.63
43.79
63.80
78.46
87.46
91.46
91.79
90.06
87.71
85.72
84.47
83.81
83.27
82.26
80.31
77.21
73.06
68.17
62.93
57.69
52.64
47.79
43.07
38.37
33.63
28.94
24.49
20.68
18.05
17.30
19.18
24.42
33.54
46.70
63.51
82.85
102.83
120.94
134.47
141.02
138.99
127.96
108.78
83.40
54.54
25.15
-2.02
-24.96
-42.60
-54.89
-62.53
-66.66
-68.30
-68.13
-66.31
-62.63
-56.76
-48.42
-37.65
-24.80
-10.61
3.93
17.69
29.74
39.45
46.71
51.78
55.18
57.38
58.64
59.04
58.62
57.50
55.99
54.52
53.41
52.69
51.96
50.45
47.33
41.93
34.10
24.28
13.59
3.75
-3.01
-4.24
2.11
17.01
39.73
67.83
97.62
125.37
148.37
165.65
177.81
186.31
192.47
196.90
199.51
199.99
198.45
195.63
192.74
190.83
190.07
189.45
186.91
180.04
167.02
147.29
121.77
92.42
61.40
30.32
-0.11
-29.94
-59.44
-88.57
-116.74
-142.94
-166.17
-185.82
-201.90
-215.00
-226.08
-236.13
-245.82
-255.24
-263.80
-270.31
-273.38
-271.86
-265.43
-254.95
-242.39
-230.41
-221.55
-217.45
-218.11
-221.65
-224.57
-222.66
-212.22
-191.40
-160.86
-123.58
-83.86
-45.97
-13.08
13.08
31.98
43.75
49.02
49.00
45.76
42.18
41.10
44.24
51.22
59.49
65.17
64.77
56.69
42.20
25.15
10.60
3.02
4.60
14.50
29.22
44.01
54.54
58.16
54.42
44.61
30.94
15.65
0.51
-13.30
-25.05
-34.27
-40.64
-43.98
-44.36
-42.20
-38.33
-33.81
-29.64
-26.43
-24.09
-22.02
-19.48
-16.27
-12.99
-11.02
-11.77
-15.91
-22.93
-31.18
-38.61
-43.63
-45.78
-45.86
-45.53
-46.71
-51.04
-59.45
-71.71
-86.09
-99.25
-106.68
-103.98
-88.35
-59.98
-22.29
18.97
57.68
89.23
111.63
125.35
132.32
134.62
133.64
129.99
123.93
115.90
106.67
97.32
88.79
81.62
75.72
70.51
65.20
59.08
51.82
43.56
34.93
26.78
19.96
14.97
11.75
9.67
7.72
4.90
0.71
-4.63
-10.20
-14.77
-17.35
-17.59
-15.99
-13.68
-12.09
-12.53
-15.87
-22.25
-30.77
-39.37
-44.88
-43.71
-32.85
-11.05
20.47
58.11
96.89
131.87
159.48
178.19
188.46
192.03
191.08
187.61
183.18
178.90
175.67
174.21
174.93
177.63
181.28
184.04
183.74
178.50
167.20
149.71
126.53
98.35
65.76
29.31
-10.10
-50.88
-90.76
-127.34
-158.78
-184.41
-204.71
-220.84
-233.75
-243.58
-249.60
-250.53
-245.39
-234.23
-218.36
-200.24
-182.93
-169.22
-160.76
-157.24
-155.99
-152.19
-140.05
-114.65
-73.90
-19.86
41.42
101.49
152.08
187.43
205.61
208.24
199.14
182.66
162.53
141.48
121.50
104.18
90.83
82.33
78.79
79.44
82.92
87.81
93.21
98.92
105.50
113.81
124.36
136.77
149.28
158.81
161.53
153.91
134.04
102.54
62.62
19.10
-23.16
-60.91
-93.27
-121.42
-147.48
-173.06
-198.55
-223.13
-245.31
-263.45
-275.88
-280.52
-274.62
-255.09
-219.61
-168.14
-103.97
-33.68
34.38
92.25
134.57
159.59
168.89
165.98
154.82
138.49
119.02
97.59
75.12
52.66
31.34
12.08
-4.78
-19.63
-33.32
-46.56
-59.46
-71.25
-80.62
-86.48
-88.66
-88.29
-87.38
-87.97
-91.22
-96.99
-104.17
-111.44
-118.15
-124.54
-131.38
-139.30
-148.17
-156.96
-163.93
-167.00
-163.78
-151.79
-128.68
-93.14
-45.95
9.31
66.60
118.95
160.59
188.70
203.76
208.61
206.62
200.30
190.76
178.36
163.61
147.79
132.83
120.44
111.41
105.21
100.28
94.94
88.14
79.88
71.15
63.24
57.08
52.73
49.45
46.06
41.61
35.79
28.99
21.99
15.52
9.88
4.88
-0.13
-5.89
-13.05
-21.96
-32.52
-44.10
-55.50
-65.16
-71.43
-73.11
-69.94
-62.67
-52.97
-42.84
-33.97
-27.29
-22.95
-20.62
-19.92
-20.75
-23.26
-27.61
-33.70
-40.99
-48.66
-55.93
-62.27
-67.49
-71.62
-74.76
-76.87
-77.75
-77.18
-75.06
-71.60
-67.30
-62.93
-59.26
-56.86
-55.93
-56.24
-57.23
-58.18
-58.50
-57.87
-56.38
-54.46
-52.74
-51.77
-51.76
-52.40
-52.69
-51.06
-45.68
-35.05
-18.57
3.01
27.61
52.31
74.09
90.71
101.14
105.61
105.19
101.28
95.12
87.68
79.65
71.62
64.08
57.29
51.24
45.53
39.63
33.14
26.10
19.02
12.71
7.87
4.75
3.06
2.00
0.53
-2.35
-7.36
-14.73
-24.06
-34.22
-43.57
-50.39
-53.49
-52.66
-48.78
-43.36
-37.84
-33.05
-29.01
-25.16
-20.85
-15.62
-9.35
-2.14
5.70
13.65
20.83
26.02
27.93
25.57
18.60
7.48
-6.65
-22.26
-37.75
-51.68
-62.98
-71.15
-76.30
-79.14
-80.61
-81.54
-82.26
-82.53
-81.83
-79.66
-75.82
-70.46
-63.94
-56.56
-48.65
-40.60
-33.11
-27.16
-23.81
-23.77
-27.08
-33.05
-40.48
-48.09
-54.90
-60.43
-64.58
-67.12
-67.44
-64.41
-56.80
-43.89
-25.99
-4.54
18.30
40.24
59.55
75.16
86.36
92.44
92.52
85.87
72.42
53.23
30.36
6.26
-17.03
-38.55
-58.41
-77.48
-96.62
-116.18
-135.70
-154.21
-170.59
-184.12
-194.72
-203.03
-210.26
-217.84
-226.92
-237.69
-249.02
-258.43
-262.75
-259.24
-246.59
-225.53
-198.50
-168.61
-138.48
-109.47
-81.62
-54.13
-26.03
3.38
34.18
65.65
96.12
123.19
144.21
157.13
161.45
158.45
150.88
141.85
133.82
127.87
123.76
120.37
116.43
110.86
103.05
92.78
80.18
65.63
49.69
32.96
15.85
-1.49
-19.37
-38.48
-59.62
-83.13
-108.21
-132.63
-152.93
-165.35
-167.14
-157.58
-138.20
-112.10
-82.66
-52.35
-22.13
8.31
39.58
71.64
103.22
131.90
154.88
170.05
176.73
175.90
169.83
161.23
152.39
144.69
138.60
134.03
130.66
128.06
125.60
122.29
116.94
108.53
96.68
81.87
65.27
48.29
32.02
16.83
2.40
-12.22
-28.21
-46.58
-67.61
-90.36
-112.44
-130.31
-140.21
-139.42
-127.21
-105.03
-75.77
-42.41
-6.85
30.37
69.31
109.37
148.44
183.00
209.29
224.91
229.93
226.83
219.52
211.82
206.23
203.63
203.66
205.65
209.25
214.69
222.37
232.31
243.68
254.84
263.76
268.76
269.10
265.27
258.70
251.05
243.45
235.91
227.18
215.34
198.57
176.02
148.18
116.91
85.12
56.26
33.62
19.74
15.77
21.15
33.66
49.82
65.74
78.11
84.92
85.75
81.48
73.67
63.93
53.50
43.35
34.32
27.32
23.27
22.89
26.32
32.93
41.29
49.47
55.55
58.01
55.91
48.91
37.20
21.47
2.95
-16.53
-34.71
-49.43
-59.42
-64.97
-68.07
-71.87
-79.59
-93.23
-112.83
-136.26
-159.78
-178.76
-188.63
-185.76
-168.37
-137.35
-96.55
-52.32
-11.93
18.47
35.75
40.50
36.24
27.69
18.84
11.85
7.03
3.68
1.04
-1.17
-2.78
-3.49
-3.19
-2.10
-0.63
0.76
1.67
1.82
1.02
-0.77
-3.43
-6.82
-10.88
-15.73
-21.66
-28.92
-37.42
-46.56
-55.15
-61.53
-63.85
-60.41
-50.34
-34.03
-13.43
8.26
27.40
41.10
48.16
49.33
46.71
42.70
39.04
36.28
33.96
31.24
27.32
21.83
14.63
5.79
-4.54
-16.06
-28.17
-39.96
-50.40
-58.45
-63.37
-64.91
-63.42
-59.83
-55.60
-52.38
-51.64
-54.23
-60.15
-68.55
-78.00
-86.90
-93.93
-98.23
-99.52
-97.96
-93.96
-87.97
-80.46
-71.84
-62.56
-53.06
-43.87
-35.50
-28.46
-23.21
-20.01
-18.86
-19.39
-20.83
-22.10
-22.18
-20.47
-17.21
-13.50
-11.05
-11.50
-15.71
-23.23
-32.37
-40.91
-47.06
-50.43
-52.44
-55.90
-63.97
-78.90
-100.98
-128.32
-157.14
-182.89
-201.43
-210.24
-209.22
-200.87
-189.69
-180.93
-178.97
-185.88
-200.68
-219.65
-237.50
-248.98
-250.21
-239.33
-216.35
-182.62
-140.26
-91.94
-41.02
8.62
52.88
88.36
113.30
128.14
135.36
138.69
141.82
147.20
155.40
165.11
173.66
178.16
176.55
168.39
155.08
139.53
125.16
114.70
108.97
106.43
103.75
97.17
84.15
64.47
40.20
14.73
-8.71
-28.28
-43.84
-56.39
-67.17
-76.98
-85.98
-93.84
-99.91
-103.05
-101.42
-92.39
-73.03
-41.23
3.13
57.50
116.69
173.95
222.64
257.87
277.60
282.80
276.67
263.23
245.87
226.50
205.39
181.93
155.55
126.53
96.22
66.74
40.25
18.47
2.29
-8.39
-14.75
-19.41
-26.49
-40.97
-67.18
-106.65
-156.50
-209.53
-256.20
-288.07
-300.82
-295.54
-277.65
-254.29
-231.59
-213.07
-199.62
-190.35
-183.40
-176.48
-166.79
-151.20
-126.87
-91.97
-46.44
7.77
66.97
126.50
181.60
228.36
264.34
288.92
303.01
308.35
306.65
299.07
286.15
268.36
246.56
222.10
196.55
171.06
146.08
121.40
96.62
71.50
46.05
20.33
-5.87
-33.02
-61.57
-91.37
-121.33
-149.39
-173.04
-190.10
-199.45
-201.57
-198.55
-193.57
-189.81
-189.24
-191.63
-194.40
-193.29
-183.89
-163.02
-129.52
-84.40
-30.24
29.31
89.81
146.24
193.23
225.83
240.59
236.64
216.09
183.57
144.91
105.66
70.03
40.47
17.77
1.52
-9.49
-16.91
-22.49
-27.82
-34.03
-41.67
-50.76
-60.91
-71.64
-82.51
-93.25
-103.58
-113.31
-122.21
-130.06
-136.77
-142.40
-147.13
-151.37
-155.85
-161.60
-169.65
-180.38
-192.79
-204.12
-210.32
-207.25
-192.19
-164.66
-126.38
-80.44
-30.24
21.03
70.37
114.71
151.00
176.77
191.01
194.60
190.16
181.05
170.39
160.27
151.76
145.22
140.72
138.32
138.12
140.23
144.67
151.31
159.66
168.72
176.94
182.59
184.33
181.70
175.31
166.61
157.20
148.30
140.59
134.42
130.17
128.25
128.52
129.65
128.88
122.73
108.30
84.53
52.69
15.87
-22.08
-57.45
-86.96
-107.63
-116.68
-112.23
-94.39
-66.28
-34.05
-5.60
11.63
12.88
-2.58
-31.50
-67.96
-105.18
-137.38
-160.86
-174.31
-178.15
-173.64
-162.04
-144.29
-121.25
-94.06
-64.51
-34.97
-8.02
14.12
30.08
39.57
43.41
43.28
41.30
39.36
38.54
38.75
38.88
37.42
33.23
26.18
17.15
7.38
-2.22
-11.64
-21.69
-33.42
-47.56
-64.32
-83.64
-105.39
-129.16
-153.59
-175.62
-190.41
-192.39
-177.35
-144.37
-96.81
-41.57
13.06
59.96
94.94
117.11
128.11
130.83
128.45
123.98
120.01
118.52
120.46
125.39
131.51
136.21
136.96
132.19
121.79
106.81
88.89
69.57
49.84
30.27
11.24
-6.73
-22.89
-36.49
-47.16
-55.09
-61.13
-66.45
-72.13
-78.68
-85.95
-93.24
-99.76
-104.97
-108.92
-112.18
-115.73
-120.76
-128.38
-139.24
-152.87
-167.25
-178.63
-182.29
-173.89
-151.11
-114.85
-69.24
-20.48
25.10
62.73
90.12
107.27
115.50
116.45
111.51
101.84
88.74
73.88
59.32
47.11
38.72
34.74
34.75
37.56
41.63
45.55
48.25
49.19
48.27
45.67
41.64
36.34
29.72
21.68
12.12
1.20
-10.59
-22.55
-33.89
-44.04
-52.78
-60.30
-67.15
-74.09
-81.99
-91.80
-104.27
-119.55
-136.66
-153.00
-164.53
-166.59
-155.32
-129.15
-89.76
-41.81
8.30
54.24
91.39
117.56
132.85
138.77
137.23
130.03
118.69
104.77
90.04
76.38
65.54
58.62
55.85
56.48
59.18
62.42
64.90
65.74
64.56
61.31
56.19
49.50
41.58
32.77
23.29
13.27
2.69
-8.46
-20.10
-31.98
-43.61
-54.44
-64.03
-72.26
-79.50
-86.62
-94.91
-105.79
-120.22
-137.98
-157.02
-173.48
-182.26
-178.52
-159.30
-124.78
-78.53
-26.62
24.10
67.75
100.78
122.17
133.01
135.45
131.85
124.22
114.15
102.97
91.94
82.21
74.70
69.84
67.51
67.13
67.96
69.30
70.61
71.37
71.04
69.02
64.79
58.14
49.36
39.17
28.47
18.00
8.08
-1.46
-11.11
-21.36
-32.35
-43.76
-54.87
-64.85
-73.15
-79.80
-85.61
-92.07
-100.99
-113.71
-130.26
-148.59
-164.62
-172.97
-168.62
-148.72
-113.82
-67.89
-17.25
31.36
72.59
103.52
123.60
133.98
136.43
132.74
124.56
113.52
101.50
90.45
82.12
77.45
76.32
77.63
79.77
81.34
81.65
80.81
79.41
77.98
76.49
74.24
70.14
63.31
53.54
41.58
28.90
17.12
7.36
-0.26
-6.61
-13.10
-21.02
-30.87
-42.18
-53.65
-63.84
-71.76
-77.34
-81.45
-85.65
-91.75
-101.29
-115.00
-132.21
-150.49
-165.70
-172.78
-167.20
-146.64
-112.01
-67.47
-19.23
26.43
64.80
93.69
113.14
124.51
129.40
129.10
124.56
116.79
107.19
97.51
89.54
84.53
82.81
83.65
85.66
87.34
87.67
86.45
84.16
81.51
78.97
76.39
73.08
68.15
61.02
51.75
41.07
30.19
20.29
12.15
5.89
0.93
-3.75
-9.29
-16.44
-25.30
-35.19
-44.95
-53.37
-59.69
-63.96
-67.04
-70.33
-75.41
-83.59
-95.49
-110.61
-126.91
-140.88
-148.05
-144.25
-127.07
-96.98
-57.51
-14.29
26.70
60.78
85.64
101.20
108.83
110.28
107.03
100.22
90.90
80.42
70.47
62.72
58.32
57.47
59.35
62.44
65.15
66.44
66.06
64.48
62.42
60.32
58.10
55.11
50.52
43.77
34.92
24.75
14.52
5.51
-1.44
-6.29
-9.82
-13.33
-18.14
-25.00
-33.79
-43.60
-53.10
-61.12
-67.11
-71.38
-74.92
-79.13
-85.41
-94.81
-107.57
-122.65
-137.50
-148.23
-150.48
-140.81
-118.08
-84.15
-43.56
-2.18
34.64
63.43
83.14
94.62
99.67
100.06
97.14
91.86
85.06
77.70
70.80
65.25
61.52
59.65
59.25
59.78
60.74
61.75
62.59
63.03
62.79
61.48
58.71
54.28
48.29
41.21
33.68
26.35
19.57
13.38
7.52
1.67
-4.30
-10.25
-15.89
-20.97
-25.58
-30.14
-35.23
-41.27
-48.23
-55.62
-62.66
-68.67
-73.43
-77.24
-80.90
-85.49
-92.08
-101.44
-113.58
-127.27
-139.81
-147.33
-145.73
-132.08
-105.98
-70.04
-29.23
10.60
44.51
69.69
85.68
93.77
95.89
93.83
88.88
81.98
74.08
66.23
59.52
54.78
52.34
51.95
52.87
54.28
55.52
56.27
56.49
56.24
55.46
53.88
51.16
47.08
41.72
35.48
28.87
22.33
16.04
9.88
3.69
-2.61
-8.85
-14.70
-19.88
-24.34
-28.42
-32.67
-37.68
-43.72
-50.64
-57.87
-64.64
-70.32
-74.65
-77.94
-81.00
-85.04
-91.31
-100.63
-112.85
-126.29
-137.74
-143.00
-138.14
-120.93
-91.91
-54.47
-13.99
23.88
54.80
76.69
89.69
95.34
95.56
92.00
85.75
77.67
68.69
59.92
52.53
47.41
44.95
44.86
46.38
48.58
50.62
51.96
52.38
51.88
50.51
48.30
45.13
40.89
35.48
28.92
21.46
13.55
5.79
-1.26
-7.23
-12.06
-16.10
-19.94
-24.32
-29.77
-36.43
-43.96
-51.64
-58.58
-64.17
-68.28
-71.36
-74.30
-78.21
-84.16
-92.93
-104.70
-118.54
-132.13
-141.81
-143.35
-133.29
-110.43
-76.62
-36.42
4.22
39.89
67.17
85.14
94.87
98.23
96.99
92.32
85.01
75.90
66.10
57.03
49.95
45.68
44.28
45.14
47.24
49.56
51.32
52.15
52.05
51.18
49.73
47.73
45.01
41.28
36.23
29.73
21.97
13.49
5.06
-2.49
-8.64
-13.33
-17.05
-20.67
-25.13
-31.01
-38.31
-46.41
-54.34
-61.16
-66.38
-70.10
-73.00
-76.10
-80.51
-87.27
-96.99
-109.44
-123.00
-134.55
-139.86
-134.81
-116.93
-86.67
-47.62
-5.51
33.60
65.15
87.08
99.65
104.51
103.56
98.28
89.70
78.83
67.00
55.89
47.15
41.95
40.50
42.13
45.47
49.06
51.79
53.16
53.23
52.42
51.11
49.38
46.88
43.06
37.42
29.81
20.62
10.67
1.04
-7.30
-13.82
-18.57
-22.22
-25.78
-30.31
-36.41
-44.06
-52.55
-60.81
-67.85
-73.15
-76.91
-79.93
-83.40
-88.56
-96.49
-107.74
-121.84
-136.89
-149.43
-154.94
-149.14
-129.57
-96.83
-54.79
-9.46
32.80
67.14
91.27
105.40
111.27
111.01
106.40
98.67
88.78
77.88
67.31
58.53
52.66
50.11
50.50
52.78
55.64
58.02
59.34
59.51
58.79
57.45
55.54
52.87
49.10
43.91
37.15
29.01
19.91
10.57
1.69
-6.11
-12.55
-17.78
-22.38
-27.14
-32.79
-39.72
-47.74
-56.18
-64.15
-70.87
-76.06
-79.99
-83.43
-87.47
-93.32
-102.02
-114.07
-128.86
-144.16
-156.08
-159.80
-151.01
-127.69
-91.20
-46.24
0.55
42.69
75.70
97.98
110.35
114.96
113.99
109.07
101.20
91.22
80.21
69.60
60.85
55.14
52.87
53.62
56.34
59.70
62.57
64.26
64.63
63.86
62.21
59.75
56.35
51.68
45.50
37.79
28.89
19.42
10.16
1.81
-5.18
-10.81
-15.52
-20.03
-25.19
-31.62
-39.46
-48.34
-57.40
-65.67
-72.39
-77.34
-80.93
-84.13
-88.26
-94.71
-104.60
-118.22
-134.45
-150.41
-161.61
-163.04
-150.78
-123.65
-83.97
-37.15
10.02
51.37
82.98
103.69
114.51
117.51
114.79
108.00
98.42
87.31
76.12
66.39
59.48
56.09
56.15
58.74
62.56
66.29
68.98
70.22
70.03
68.63
66.18
62.68
58.02
52.06
44.77
36.28
26.94
17.25
7.86
-0.57
-7.54
-12.89
-16.99
-20.66
-24.98
-30.85
-38.61
-47.88
-57.64
-66.70
-74.12
-79.70
-83.91
-87.86
-92.88
-100.29
-111.01
-125.07
-141.08
-155.88
-164.83
-163.00
-146.92
-116.11
-73.71
-25.76
20.77
60.07
88.93
106.96
115.70
117.36
113.83
106.42
96.19
84.34
72.52
62.55
55.99
53.54
54.79
58.37
62.47
65.55
66.86
66.53
65.30
63.87
62.37
60.18
56.27
49.72
40.31
28.78
16.60
5.50
-3.25
-9.29
-13.32
-16.78
-21.23
-27.76
-36.48
-46.51
-56.39
-64.69
-70.61
-74.31
-76.78
-79.55
-84.19
-92.03
-103.70
-118.72
-135.00
-148.79
-155.25
-149.76
-129.70
-95.70
-51.82
-4.53
39.42
74.85
99.38
113.26
118.39
117.08
111.22
102.13
90.95
79.01
67.93
59.39
54.60
53.88
56.52
61.02
65.65
69.01
70.35
69.64
67.37
64.06
60.09
55.48
50.00
43.32
35.31
26.13
16.33
6.69
-1.99
-9.18
-14.81
-19.36
-23.66
-28.71
-35.21
-43.38
-52.74
-62.34
-71.10
-78.23
-83.54
-87.62
-91.60
-96.89
-104.90
-116.54
-131.80
-149.07
-164.96
-174.56
-172.73
-155.87
-123.53
-79.10
-28.98
19.44
60.05
89.56
107.76
116.59
118.68
116.26
110.75
103.11
94.27
85.44
77.97
72.94
70.74
71.01
72.74
74.77
76.23
76.75
76.40
75.42
73.93
71.72
68.43
63.69
57.39
49.76
41.23
32.25
23.19
14.30
5.83
-1.97
-8.84
-14.69
-19.69
-24.42
-29.65
-36.04
-43.86
-52.77
-61.99
-70.53
-77.68
-83.28
-87.82
-92.32
-98.07
-106.39
-118.18
-133.36
-150.18
-165.01
-172.77
-168.34
-148.53
-113.57
-67.56
-17.28
29.94
68.47
95.68
111.86
119.20
120.32
117.37
111.75
104.42
96.27
88.31
81.52
76.55
73.55
72.14
71.52
70.89
69.67
67.71
65.21
62.53
59.92
57.31
54.33
50.40
45.07
38.15
29.85
20.66
11.29
2.39
-5.53
-12.24
-17.86
-22.82
-27.77
-33.39
-40.16
-48.12
-56.83
-65.47
-73.20
-79.46
-84.20
-87.96
-91.68
-96.65
-104.16
-115.19
-129.77
-146.29
-161.22
-169.65
-166.62
-148.93
-116.64
-73.38
-25.31
20.79
59.60
88.36
106.89
116.66
119.70
117.70
111.94
103.53
93.73
84.03
76.00
70.80
68.88
69.78
72.28
74.88
76.35
76.14
74.48
72.04
69.51
67.06
64.24
60.14
53.93
45.25
34.56
23.01
12.07
2.95
-3.85
-8.73
-12.84
-17.61
-24.12
-32.68
-42.64
-52.72
-61.54
-68.21
-72.66
-75.66
-78.51
-82.66
-89.45
-99.76
-113.68
-129.98
-145.71
-156.44
-157.26
-144.45
-117.07
-77.76
-32.10
13.15
52.17
81.56
100.67
110.81
113.97
111.88
105.70
96.40
85.20
73.81
64.22
58.06
56.07
57.81
61.79
66.13
69.18
70.11
69.04
66.71
63.94
61.09
57.84
53.33
46.73
37.72
26.77
15.09
4.17
-4.81
-11.42
-16.18
-20.30
-25.15
-31.75
-40.30
-50.15
-60.07
-68.77
-75.40
-79.90
-83.03
-86.10
-90.68
-98.20
-109.58
-124.65
-141.64
-156.96
-165.68
-162.87
-145.42
-113.46
-70.79
-23.78
20.66
57.23
83.44
99.58
107.58
109.73
107.72
102.55
94.97
85.96
76.93
69.45
64.73
63.16
64.16
66.41
68.44
69.26
68.63
67.04
65.32
64.00
62.96
61.35
58.00
51.95
42.96
31.74
19.77
8.69
-0.25
-6.74
-11.45
-15.72
-21.01
-28.20
-37.35
-47.68
-57.91
-66.84
-73.76
-78.72
-82.46
-86.18
-91.31
-99.21
-110.78
-125.94
-142.92
-158.12
-166.54
-163.23
-145.08
-112.31
-68.80
-20.98
24.25
61.59
88.53
105.28
113.70
115.98
113.81
108.25
100.16
90.62
81.08
73.09
67.84
65.74
66.33
68.43
70.73
72.21
72.46
71.63
70.19
68.49
66.51
63.86
59.94
54.24
46.56
37.15
26.65
16.01
6.19
-2.07
-8.53
-13.53
-17.90
-22.70
-28.79
-36.49
-45.48
-54.86
-63.58
-70.80
-76.23
-80.19
-83.56
-87.56
-93.51
-102.60
-115.40
-131.18
-147.44
-159.88
-163.36
-153.54
-128.72
-90.83
-45.08
1.65
43.05
75.06
96.43
108.09
111.97
109.91
103.34
93.45
81.70
69.87
59.84
53.07
50.13
50.51
52.89
55.69
57.69
58.40
58.09
57.43
56.89
56.26
54.63
50.74
43.70
33.58
21.56
9.54
-0.67
-8.12
-13.12
-17.07
-21.74
-28.39
-37.21
-47.27
-56.97
-64.86
-70.25
-73.52
-75.94
-79.31
-85.37
-95.31
-109.24
-125.69
-141.41
-151.80
-152.01
-138.65
-111.20
-72.53
-28.17
15.43
52.87
81.11
99.59
109.48
112.51
110.23
103.79
94.26
83.01
71.74
62.23
55.84
53.06
53.40
55.57
58.06
59.65
59.90
59.03
57.67
56.30
54.85
52.62
48.55
41.86
32.44
21.16
9.52
-0.85
-8.87
-14.55
-18.90
-23.55
-29.92
-38.57
-48.94
-59.63
-69.03
-76.04
-80.56
-83.47
-86.39
-91.12
-99.28
-111.67
-127.79
-145.32
-160.08
-166.85
-160.89
-139.77
-104.61
-60.02
-12.71
30.68
65.52
90.01
104.80
111.81
112.97
109.67
102.84
93.54
83.20
73.61
66.40
62.46
61.66
62.92
64.72
65.78
65.49
64.10
62.33
60.94
60.12
59.30
57.34
52.99
45.56
35.29
23.37
11.55
1.46
-6.01
-11.10
-15.03
-19.45
-25.70
-34.21
-44.35
-54.74
-63.91
-70.91
-75.67
-79.04
-82.43
-87.40
-95.37
-107.17
-122.61
-139.95
-155.67
-164.87
-162.64
-145.76
-114.26
-71.78
-24.60
20.42
57.94
85.33
102.67
111.60
114.11
111.77
105.65
96.79
86.57
76.70
68.83
63.99
62.27
62.86
64.45
65.78
66.10
65.36
64.02
62.62
61.40
60.04
57.67
53.33
46.34
36.75
25.41
13.79
3.34
-4.96
-11.12
-16.04
-21.16
-27.77
-36.41
-46.61
-57.07
-66.27
-73.14
-77.56
-80.45
-83.37
-88.09
-96.04
-107.91
-123.16
-139.69
-153.78
-160.73
-156.07
-137.20
-104.65
-62.27
-16.16
27.19
62.79
88.24
103.59
110.44
110.77
106.25
98.22
87.88
76.69
66.28
58.12
53.13
51.39
52.20
54.37
56.75
58.54
59.47
59.55
58.74
56.75
53.03
47.12
39.03
29.41
19.33
9.85
1.54
-5.76
-12.80
-20.37
-28.88
-38.12
-47.34
-55.62
-62.32
-67.42
-71.48
-75.62
-81.31
-89.92
-102.16
-117.29
-132.70
-144.04
-146.31
-135.65
-110.98
-74.71
-32.21
10.06
46.48
73.82
91.48
100.69
103.39
101.24
95.42
86.88
76.75
66.44
57.52
51.23
48.14
48.00
49.89
52.59
55.04
56.53
56.78
55.72
53.25
49.22
43.42
35.89
26.99
17.40
7.88
-1.08
-9.42
-17.49
-25.77
-34.54
-43.64
-52.49
-60.35
-66.73
-71.65
-75.82
-80.53
-87.34
-97.56
-111.52
-127.84
-143.21
-152.88
-152.01
-137.42
-109.00
-70.04
-26.28
15.94
51.63
78.28
95.85
105.85
110.18
110.29
107.10
101.29
93.81
85.91
78.99
74.13
71.71
71.32
71.93
72.44
72.06
70.66
68.62
66.49
64.53
62.43
59.37
54.39
46.92
37.10
25.86
14.58
4.61
-3.28
-9.19
-14.05
-19.21
-25.92
-34.68
-45.08
-55.93
-65.73
-73.37
-78.57
-82.05
-85.30
-90.07
-97.99
-109.96
-125.68
-143.19
-158.78
-167.53
-164.69
-147.38
-115.86
-73.90
-27.68
16.16
52.52
79.00
95.86
105.03
108.80
108.97
106.59
102.28
96.65
90.54
84.89
80.57
78.03
77.14
77.29
77.64
77.45
76.32
74.29
71.68
68.85
65.92
62.69
58.67
53.32
46.34
37.84
28.35
18.68
9.62
1.70
-4.95
-10.57
-15.69
-20.96
-26.92
-33.89
-41.86
-50.42
-58.91
-66.61
-73.04
-78.14
-82.40
-86.76
-92.45
-100.67
-112.27
-127.11
-143.52
-158.09
-166.12
-162.96
-145.64
-114.33
-72.63
-26.60
17.18
53.61
80.20
97.11
106.11
109.38
108.66
105.04
99.26
92.16
84.82
78.43
73.91
71.64
71.31
72.09
73.01
73.34
72.83
71.58
69.89
67.93
65.55
62.40
58.06
52.27
45.02
36.55
27.31
17.85
8.76
0.57
-6.38
-12.06
-16.86
-21.52
-26.88
-33.50
-41.42
-50.07
-58.48
-65.70
-71.22
-75.21
-78.45
-82.13
-87.54
-95.79
-107.43
-122.02
-137.58
-150.52
-156.22
-150.38
-130.63
-97.85
-56.11
-11.58
29.50
62.66
86.06
100.18
106.75
107.56
103.85
96.49
86.43
75.11
64.40
56.12
51.37
50.15
51.42
53.57
55.22
55.70
55.22
54.44
53.84
53.31
51.99
48.74
42.71
33.91
23.26
12.31
2.58
-5.08
-10.76
-15.45
-20.48
-26.92
-35.05
-44.26
-53.33
-61.00
-66.53
-70.04
-72.47
-75.32
-80.23
-88.53
-100.70
-115.78
-131.09
-142.41
-144.95
-134.94
-111.15
-75.69
-33.53
9.12
46.68
75.73
95.35
106.48
110.81
109.84
104.60
95.89
84.79
72.85
61.95
53.76
49.24
48.28
49.85
52.36
54.39
55.14
54.57
53.23
51.75
50.35
48.62
45.65
40.53
32.75
22.67
11.41
0.57
-8.45
-15.01
-19.50
-23.17
-27.65
-34.10
-42.79
-52.90
-63.03
-71.70
-78.11
-82.32
-85.26
-88.32
-93.07
-100.88
-112.55
-127.78
-144.60
-159.20
-166.55
-161.84
-142.26
-108.43
-64.47
-16.78
27.96
64.82
91.53
108.30
116.77
118.92
116.31
110.06
101.16
90.80
80.45
71.57
65.28
61.98
61.32
62.33
63.84
64.89
64.98
64.15
62.68
60.88
58.77
56.04
52.14
46.51
38.87
29.39
18.74
7.96
-1.89
-10.04
-16.34
-21.33
-26.03
-31.55
-38.60
-47.21
-56.72
-66.02
-74.06
-80.23
-84.64
-88.01
-91.55
-96.67
-104.74
-116.69
-132.38
-149.99
-165.75
-174.45
-170.93
-151.96
-117.75
-72.32
-22.26
25.32
64.88
93.73
111.86
120.94
123.09
120.05
113.12
103.43
92.31
81.32
72.04
65.61
62.41
61.98
63.20
64.80
65.84
65.96
65.36
64.47
63.53
62.28
59.98
55.69
48.75
39.12
27.57
15.44
4.26
-4.82
-11.42
-16.12
-20.24
-25.28
-32.31
-41.50
-52.00
-62.39
-71.20
-77.61
-81.73
-84.54
-87.56
-92.38
-100.36
-112.23
-127.66
-144.72
-159.71
-167.66
-163.69
-144.79
-111.20
-66.82
-18.04
28.20
66.50
94.13
111.01
118.76
119.46
114.90
106.45
95.35
83.05
71.24
61.47
54.75
51.30
50.46
51.22
52.57
53.92
55.05
55.86
56.04
54.93
51.73
45.89
37.49
27.35
16.70
6.64
-2.29
-10.27
-18.00
-26.25
-35.37
-45.13
-54.77
-63.38
-70.36
-75.72
-80.12
-84.81
-91.30
-100.97
-114.38
-130.66
-146.99
-158.85
-161.09
-149.70
-123.46
-84.79
-39.08
6.97
47.51
79.00
100.55
113.16
118.54
118.19
113.23
104.69
93.96
82.82
73.11
66.17
62.48
61.55
62.24
63.35
64.08
64.20
63.93
63.48
62.66
60.76
56.74
49.78
39.83
27.76
15.18
3.74
-5.53
-12.69
-18.83
-25.47
-33.80
-44.07
-55.47
-66.51
-75.77
-82.55
-87.21
-91.05
-95.99
-103.94
-116.21
-132.74
-151.56
-168.64
-178.56
-176.04
-157.81
-124.10
-78.92
-28.90
18.87
58.89
88.49
107.70
118.19
122.03
120.92
116.06
108.54
99.68
91.01
84.00
79.53
77.63
77.51
77.95
77.87
76.79
74.93
72.93
71.35
70.16
68.57
65.31
59.23
49.94
38.08
25.20
13.16
3.34
-3.95
-9.53
-15.01
-21.98
-31.28
-42.59
-54.60
-65.61
-74.31
-80.34
-84.44
-88.21
-93.57
-102.28
-115.35
-132.43
-151.33
-167.94
-176.92
-173.22
-153.88
-119.45
-74.15
-24.63
22.13
60.88
89.21
107.40
117.29
120.96
120.03
115.58
108.54
100.09
91.77
85.10
81.09
79.93
80.86
82.59
83.77
83.56
81.80
78.98
75.85
72.94
70.24
67.12
62.59
55.84
46.58
35.39
23.51
12.51
3.61
-2.76
-7.15
-10.93
-15.67
-22.53
-31.76
-42.56
-53.44
-62.79
-69.59
-73.81
-76.45
-79.23
-84.07
-92.64
-105.85
-123.46
-143.52
-162.29
-174.65
-175.37
-160.86
-130.67
-88.10
-39.29
8.68
49.89
81.08
101.77
113.40
118.01
117.33
112.51
104.48
94.43
83.98
74.91
68.58
65.47
64.98
65.77
66.35
65.78
63.99
61.55
59.22
57.25
55.10
51.61
45.61
36.66
25.36
13.31
2.37
-6.11
-11.90
-15.98
-20.01
-25.58
-33.41
-43.08
-53.29
-62.53
-69.68
-74.59
-78.06
-81.55
-86.83
-95.46
-108.31
-124.89
-142.86
-158.02
-165.11
-159.38
-138.42
-103.39
-58.86
-11.46
32.28
67.76
93.18
109.16
117.55
120.33
118.94
114.32
107.34
99.11
91.03
84.49
80.43
79.04
79.70
81.25
82.48
82.56
81.27
78.89
75.90
72.58
68.77
63.89
57.23
48.35
37.30
24.78
11.96
0.13
-9.72
-17.24
-22.85
-27.57
-32.70
-39.25
-47.64
-57.45
-67.69
-77.16
-84.97
-90.89
-95.43
-99.67
-104.94
-112.53
-123.42
-137.84
-154.77
-171.56
-183.98
-187.15
-177.02
-151.96
-113.64
-66.80
-17.82
27.19
63.96
90.72
107.87
117.04
120.14
118.85
114.50
108.29
101.43
95.05
90.09
87.01
85.73
85.71
86.23
86.67
86.77
86.54
86.06
85.21
83.55
80.44
75.38
68.32
59.75
50.56
41.62
33.40
25.89
18.68
11.31
3.61
-4.17
-11.48
-17.84
-23.15
-27.88
-32.91
-39.12
-46.95
-56.16
-65.88
-74.99
-82.61
-88.44
-92.95
-97.22
-102.72
-110.99
-123.14
-139.16
-157.28
-173.72
-183.25
-180.65
-162.64
-129.31
-84.50
-34.62
13.38
54.02
84.50
104.64
115.88
120.17
119.23
114.42
107.00
98.40
90.17
83.66
79.68
78.24
78.67
79.94
81.11
81.70
81.69
81.31
80.71
79.66
77.63
74.03
68.56
61.42
53.24
44.81
36.72
29.15
21.86
14.50
6.84
-1.00
-8.55
-15.25
-20.79
-25.33
-29.51
-34.27
-40.41
-48.18
-57.13
-66.26
-74.45
-80.94
-85.67
-89.36
-93.34
-99.24
-108.47
-121.64
-137.84
-154.23
-166.25
-168.70
-157.50
-131.28
-92.28
-45.78
1.51
43.54
76.45
99.03
112.12
117.46
116.79
111.41
102.46
91.24
79.45
68.97
61.40
57.57
57.29
59.46
62.57
65.25
66.69
66.77
65.81
64.20
62.08
59.21
55.14
49.35
41.64
32.21
21.69
11.07
1.38
-6.57
-12.50
-16.82
-20.53
-24.82
-30.65
-38.35
-47.44
-56.86
-65.43
-72.30
-77.33
-81.04
-84.49
-88.92
-95.62
-105.57
-119.14
-135.35
-151.51
-163.21
-165.36
-153.88
-127.40
-88.16
-41.53
5.70
47.44
79.90
102.00
114.73
119.95
119.40
114.42
106.07
95.60
84.56
74.58
67.01
62.53
61.01
61.70
63.56
65.69
67.46
68.57
68.83
68.05
66.00
62.47
57.42
51.00
43.55
35.38
26.73
17.76
8.63
-0.36
-8.77
-16.19
-22.36
-27.45
-32.01
-36.87
-42.80
-50.20
-58.87
-68.08
-76.85
-84.37
-90.25
-94.77
-98.76
-103.45
-110.31
-120.60
-134.81
-151.85
-168.53
-179.85
-180.20
-165.40
-134.52
-90.63
-40.00
9.92
52.88
85.34
106.69
118.38
122.58
121.23
115.75
107.33
97.24
86.98
78.08
71.68
68.26
67.58
68.76
70.68
72.36
73.16
72.92
71.80
70.03
67.68
64.60
60.44
54.89
47.82
39.34
29.79
19.68
9.57
0.04
-8.45
-15.58
-21.43
-26.47
-31.53
-37.45
-44.77
-53.42
-62.69
-71.60
-79.25
-85.26
-89.88
-93.89
-98.44
-104.87
-114.44
-127.91
-144.68
-162.17
-175.77
-179.85
-169.62
-143.14
-102.44
-53.12
-2.53
42.57
77.91
102.22
116.54
122.96
123.41
119.31
111.69
101.72
90.93
81.09
73.74
69.73
68.97
70.52
73.00
75.12
76.08
75.76
74.45
72.58
70.37
67.63
63.92
58.72
51.74
43.02
33.02
22.47
12.18
2.88
-4.97
-11.30
-16.50
-21.27
-26.51
-32.96
-40.88
-49.96
-59.40
-68.18
-75.52
-81.17
-85.56
-89.65
-94.76
-102.31
-113.42
-128.35
-145.81
-162.47
-173.40
-173.19
-157.99
-127.11
-83.77
-34.18
14.45
56.11
87.52
108.19
119.56
123.66
122.14
116.17
106.69
95.02
82.92
72.38
64.99
61.53
61.68
64.22
67.50
70.11
71.23
70.78
69.21
67.07
64.62
61.65
57.59
51.80
43.96
34.23
23.35
12.38
2.41
-5.83
-12.20
-17.22
-21.88
-27.24
-34.06
-42.45
-51.84
-61.16
-69.34
-75.71
-80.33
-83.94
-87.76
-93.19
-101.47
-113.42
-128.95
-146.49
-162.66
-172.70
-171.61
-155.91
-125.21
-82.76
-34.57
12.51
52.85
83.36
103.61
114.91
119.04
117.49
111.32
101.54
89.65
77.66
67.75
61.60
59.89
61.98
66.23
70.66
73.61
74.32
72.98
70.34
67.18
63.82
59.89
54.61
47.25
37.62
26.27
14.40
3.44
-5.54
-12.20
-17.12
-21.47
-26.60
-33.51
-42.44
-52.77
-63.35
-72.89
-80.47
-85.93
-89.91
-93.68
-98.88
-107.10
-119.45
-135.91
-154.76
-172.29
-183.34
-182.66
-166.74
-135.30
-91.77
-42.30
6.13
47.83
79.62
101.03
113.44
118.96
119.50
116.49
110.99
104.07
96.90
90.66
86.32
84.31
84.36
85.67
87.22
88.18
88.12
87.11
85.39
83.13
80.23
76.34
71.10
64.36
56.27
47.23
37.70
28.12
18.81
10.06
2.10
-4.89
-10.95
-16.42
-21.95
-28.30
-36.01
-45.09
-54.96
-64.66
-73.24
-80.19
-85.70
-90.62
-96.15
-103.65
-114.25
-128.45
-145.56
-163.18
-177.15
-182.37
-174.31
-150.80
-113.19
-66.24
-16.75
28.64
65.30
91.47
107.88
116.58
119.78
119.10
115.61
110.20
103.89
97.89
93.26
90.58
89.70
89.86
90.10
89.72
88.60
87.10
85.71
84.68
83.67
81.88
78.39
72.64
64.73
55.48
46.08
37.65
30.79
25.35
20.55
15.38
9.10
1.61
-6.53
-14.34
-20.99
-26.23
-30.58
-35.19
-41.22
-49.33
-59.29
-70.02
-80.09
-88.31
-94.25
-98.45
-102.21
-107.30
-115.41
-127.60
-143.57
-161.18
-176.29
-183.57
-178.05
-156.94
-121.01
-74.69
-24.77
21.79
59.88
87.27
104.45
113.42
116.47
115.34
111.18
104.87
97.41
90.02
83.92
79.95
78.33
78.61
79.89
81.26
82.03
81.98
81.13
79.64
77.49
74.46
70.21
64.50
57.41
49.32
40.83
32.51
24.65
17.29
10.27
3.47
-3.09
-9.26
-14.91
-20.14
-25.38
-31.21
-38.13
-46.20
-54.98
-63.65
-71.30
-77.44
-82.15
-86.13
-90.59
-96.91
-106.29
-119.19
-134.71
-150.16
-161.21
-162.95
-151.47
-125.55
-87.34
-42.03
3.83
44.35
75.82
97.08
109.03
113.47
112.18
106.64
98.13
88.04
77.98
69.53
63.87
61.47
61.97
64.34
67.31
69.76
71.04
70.99
69.77
67.61
64.55
60.46
55.16
48.62
41.10
33.08
25.04
17.33
10.01
2.96
-3.94
-10.62
-16.85
-22.41
-27.31
-31.94
-36.97
-43.11
-50.67
-59.41
-68.50
-76.93
-83.88
-89.13
-93.20
-97.27
-102.91
-111.66
-124.40
-140.65
-157.92
-171.87
-177.13
-169.11
-145.71
-108.50
-62.38
-14.09
29.97
65.47
90.81
106.66
114.82
117.16
115.13
109.88
102.51
94.37
86.91
81.33
78.21
77.37
77.97
78.93
79.42
79.12
78.29
77.41
76.77
76.16
74.84
71.88
66.61
58.98
49.69
40.00
31.16
24.01
18.56
14.11
9.55
3.96
-3.01
-10.92
-18.80
-25.57
-30.66
-34.30
-37.46
-41.45
-47.30
-55.29
-64.81
-74.64
-83.41
-90.24
-95.06
-98.60
-102.23
-107.59
-116.24
-129.03
-145.44
-162.90
-176.84
-181.65
-172.46
-147.16
-107.55
-58.96
-8.64
36.65
72.46
97.34
112.17
119.00
119.90
116.41
109.77
101.18
92.07
83.90
77.82
74.33
73.18
73.50
74.29
74.81
74.90
74.83
75.01
75.48
75.75
74.84
71.71
65.83
57.52
47.82
38.15
29.71
22.99
17.66
12.79
7.38
0.83
-6.72
-14.54
-21.59
-27.11
-31.08
-34.17
-37.60
-42.50
-49.44
-58.15
-67.66
-76.69
-84.23
-89.89
-94.07
-97.88
-102.84
-110.54
-122.07
-137.28
-154.09
-168.42
-174.93
-168.63
-146.83
-110.43
-63.96
-14.14
32.23
70.22
97.68
114.89
123.49
125.39
122.15
115.07
105.50
94.96
85.14
77.40
72.45
70.29
70.23
71.36
72.85
74.24
75.39
76.34
77.04
77.10
75.85
72.56
66.79
58.66
48.92
38.62
28.73
19.75
11.60
3.85
-3.95
-11.87
-19.56
-26.37
-31.86
-36.08
-39.72
-43.82
-49.32
-56.63
-65.39
-74.65
-83.25
-90.40
-95.94
-100.46
-105.10
-111.26
-120.25
-132.73
-148.12
-164.07
-176.51
-180.43
-171.54
-147.86
-110.82
-65.01
-16.77
27.77
64.35
91.18
108.59
117.96
120.79
118.25
111.28
100.93
88.74
76.62
66.56
60.06
57.62
58.60
61.53
64.72
66.94
67.78
67.58
66.91
66.04
64.62
61.89
57.00
49.53
39.74
28.51
17.06
6.60
-2.07
-8.77
-13.96
-18.68
-24.07
-31.03
-39.80
-49.80
-59.93
-68.99
-76.18
-81.39
-85.28
-89.00
-93.98
-101.64
-113.08
-128.48
-146.42
-163.48
-174.60
-174.47
-159.34
-128.75
-85.95
-37.03
11.13
52.90
85.10
107.17
120.17
125.78
125.56
120.76
112.59
102.44
91.88
82.39
75.12
70.65
68.90
69.27
70.85
72.73
74.24
75.01
74.96
74.07
72.22
69.18
64.63
58.41
50.59
41.51
31.71
21.72
12.01
2.92
-5.29
-12.50
-18.77
-24.43
-30.06
-36.38
-43.90
-52.69
-62.26
-71.72
-80.12
-86.87
-92.00
-96.20
-100.68
-106.93
-116.39
-129.91
-147.03
-165.35
-180.45
-186.71
-179.06
-154.97
-115.69
-66.21
-13.65
34.92
74.50
102.98
120.68
129.33
130.94
127.22
119.67
109.77
99.12
89.28
81.48
76.29
73.65
72.94
73.36
74.22
75.08
75.80
76.34
76.54
76.00
74.13
70.39
64.59
57.04
48.50
39.86
31.79
24.45
17.55
10.55
3.14
-4.57
-12.03
-18.64
-24.11
-28.79
-33.58
-39.46
-47.01
-56.07
-65.82
-75.13
-83.07
-89.35
-94.39
-99.16
-104.99
-113.32
-125.23
-140.85
-158.58
-174.73
-183.99
-180.86
-161.73
-126.48
-78.99
-26.05
24.84
67.72
99.51
119.98
130.76
134.06
131.77
125.32
115.91
104.89
93.84
84.26
77.30
73.40
72.22
72.90
74.37
75.72
76.43
76.32
75.41
73.70
71.01
67.07
61.66
54.77
46.62
37.60
28.18
18.72
9.55
0.92
-6.90
-13.73
-19.56
-24.67
-29.69
-35.37
-42.28
-50.57
-59.72
-68.82
-76.88
-83.28
-88.14
-92.25
-96.90
-103.60
-113.65
-127.59
-144.55
-161.77
-174.71
-178.03
-167.32
-140.88
-100.74
-52.24
-2.39
42.37
77.83
102.55
117.26
123.64
123.39
117.78
107.99
95.50
82.24
70.41
61.88
57.61
57.35
59.78
63.06
65.56
66.48
65.96
64.79
63.70
62.77
61.21
57.75
51.27
41.50
29.29
16.39
4.74
-4.30
-10.52
-14.90
-19.18
-25.01
-33.29
-43.73
-55.05
-65.60
-74.03
-79.95
-83.94
-87.34
-91.80
-98.87
-109.64
-124.37
-141.92
-159.42
-172.39
-175.67
-165.08
-139.05
-99.61
-51.99
-3.01
41.01
75.99
100.54
115.51
122.75
124.15
121.11
114.67
105.92
96.20
87.08
79.98
75.83
74.74
75.96
78.25
80.29
81.20
80.69
79.05
76.70
73.92
70.55
66.14
60.15
52.33
42.78
32.07
21.01
10.50
1.24
-6.39
-12.54
-17.78
-23.05
-29.27
-37.02
-46.23
-56.21
-65.89
-74.32
-81.00
-86.13
-90.50
-95.26
-101.78
-111.38
-124.89
-142.03
-160.69
-176.71
-184.61
-179.25
-157.80
-121.12
-73.82
-22.86
24.76
63.92
92.36
110.37
119.70
122.45
120.39
114.93
107.33
98.89
90.97
84.71
80.75
79.17
79.48
80.79
82.18
82.96
82.80
81.69
79.80
77.26
74.03
69.88
64.52
57.71
49.46
40.01
29.86
19.67
10.12
1.71
-5.36
-11.28
-16.56
-21.92
-28.05
-35.34
-43.73
-52.74
-61.61
-69.58
-76.26
-81.69
-86.42
-91.38
-97.73
-106.72
-119.26
-135.25
-152.91
-168.45
-176.68
-172.51
-152.91
-118.35
-73.03
-23.57
23.11
61.86
90.25
108.44
118.05
121.04
119.05
113.30
104.93
95.30
85.94
78.31
73.42
71.57
72.25
74.41
76.78
78.36
78.63
77.57
75.46
72.56
68.95
64.46
58.89
52.11
44.20
35.43
26.15
16.79
7.77
-0.43
-7.44
-13.09
-17.63
-21.73
-26.28
-32.07
-39.42
-47.97
-56.87
-65.11
-72.04
-77.55
-82.15
-86.82
-92.71
-101.01
-112.60
-127.53
-144.44
-160.04
-169.55
-167.90
-151.60
-120.32
-77.44
-29.11
17.76
57.57
87.33
106.74
117.26
120.89
119.35
113.93
105.75
96.10
86.53
78.53
73.19
70.85
71.04
72.70
74.64
75.95
76.24
75.54
74.09
71.99
69.03
64.87
59.22
52.18
44.19
35.85
27.66
19.83
12.30
4.88
-2.47
-9.54
-15.97
-21.56
-26.46
-31.26
-36.73
-43.48
-51.59
-60.51
-69.33
-77.17
-83.56
-88.68
-93.29
-98.60
-105.98
-116.66
-131.05
-148.00
-164.35
-175.15
-175.01
-159.99
-129.38
-86.41
-37.28
10.82
51.97
82.95
103.32
114.51
118.62
117.51
112.62
105.21
96.57
88.07
80.91
75.87
73.20
72.58
73.32
74.61
75.79
76.44
76.44
75.76
74.34
71.95
68.20
62.79
55.69
47.27
38.19
29.15
20.62
12.72
5.33
-1.71
-8.43
-14.67
-20.28
-25.35
-30.29
-35.76
-42.34
-50.17
-58.83
-67.44
-75.08
-81.18
-85.84
-89.76
-94.17
-100.47
-109.96
-123.27
-139.76
-156.91
-170.34
-174.68
-165.35
-140.35
-101.42
-53.78
-4.53
39.67
74.41
98.23
112.10
118.14
118.45
114.59
107.69
98.78
89.14
80.21
73.22
68.88
67.17
67.42
68.66
69.96
70.71
70.71
70.00
68.67
66.71
63.93
60.00
54.62
47.62
39.07
29.32
19.00
8.93
-0.12
-7.62
-13.53
-18.35
-22.93
-28.19
-34.74
-42.67
-51.48
-60.32
-68.28
-74.73
-79.52
-83.05
-86.21
-90.20
-96.44
-106.13
-119.73
-136.15
-152.35
-163.61
-164.70
-151.74
-123.85
-83.75
-37.12
9.27
49.63
80.54
101.17
112.53
116.33
114.19
107.42
97.27
85.30
73.42
63.50
56.89
54.02
54.24
56.13
58.14
59.18
58.98
58.00
56.95
56.09
54.99
52.57
47.67
39.72
29.19
17.50
6.43
-2.64
-9.29
-14.25
-18.96
-24.84
-32.62
-41.96
-51.70
-60.38
-66.94
-71.16
-73.75
-76.12
-79.91
-86.65
-97.29
-111.72
-128.25
-143.43
-152.53
-150.82
-135.23
-105.73
-65.67
-20.83
22.44
59.12
86.53
104.33
113.67
116.06
112.86
105.20
94.34
81.92
69.90
60.06
53.56
50.54
50.24
51.34
52.61
53.31
53.32
52.89
52.19
50.97
48.47
43.77
36.32
26.38
15.00
3.72
-6.17
-14.09
-20.48
-26.44
-33.22
-41.55
-51.27
-61.47
-70.88
-78.46
-83.88
-87.66
-91.09
-95.90
-103.85
-116.08
-132.36
-150.46
-166.12
-173.91
-168.82
-148.24
-113.17
-68.13
-19.76
25.31
62.39
89.51
107.04
116.57
119.82
118.13
112.54
104.23
94.76
85.89
79.11
75.21
73.98
74.42
75.24
75.42
74.61
73.10
71.49
70.19
69.00
67.10
63.35
56.83
47.33
35.54
22.90
11.09
1.41
-5.76
-11.09
-16.05
-22.20
-30.54
-41.02
-52.56
-63.53
-72.49
-78.80
-82.90
-86.18
-90.53
-97.82
-109.34
-125.19
-143.71
-161.25
-172.68
-172.73
-157.83
-127.64
-85.51
-37.58
9.26
49.40
79.87
100.36
112.34
117.78
118.38
115.30
109.53
102.15
94.47
87.75
82.95
80.37
79.63
79.86
80.13
79.72
78.43
76.46
74.25
72.13
70.04
67.52
63.78
58.08
50.03
39.79
28.21
16.52
6.02
-2.46
-8.80
-13.72
-18.44
-24.23
-31.85
-41.26
-51.64
-61.75
-70.44
-77.13
-82.04
-86.13
-90.80
-97.58
-107.72
-121.76
-138.91
-156.62
-170.67
-175.95
-168.09
-145.09
-108.41
-62.78
-14.75
29.36
65.20
91.03
107.39
115.92
118.43
116.34
110.79
102.98
94.33
86.36
80.31
76.78
75.54
75.68
76.00
75.56
74.00
71.64
69.20
67.28
65.95
64.50
61.74
56.43
48.03
36.96
24.59
12.74
2.91
-4.31
-9.50
-14.06
-19.63
-27.20
-36.82
-47.47
-57.65
-66.02
-71.99
-75.98
-79.16
-83.21
-89.73
-99.93
-114.04
-130.88
-147.51
-159.53
-162.07
-151.38
-126.37
-89.29
-45.22
-0.54
39.12
70.19
91.60
104.16
109.47
109.09
104.27
96.09
85.86
75.20
65.84
59.12
55.60
54.93
56.03
57.63
58.78
59.07
58.65
57.75
56.34
53.91
49.68
43.06
34.13
23.72
13.11
3.46
-4.74
-11.87
-18.84
-26.54
-35.29
-44.63
-53.53
-61.00
-66.54
-70.49
-73.87
-78.14
-84.80
-94.97
-108.87
-125.27
-141.14
-152.01
-153.07
-140.81
-114.54
-76.96
-33.43
9.71
47.15
75.85
95.27
106.53
111.34
111.16
107.03
99.86
90.81
81.37
73.09
67.16
64.01
63.20
63.66
64.18
63.98
62.87
61.27
59.74
58.49
57.14
54.68
50.01
42.42
32.10
20.14
8.28
-1.85
-9.37
-14.52
-18.59
-23.26
-29.86
-38.68
-48.96
-59.16
-67.80
-74.09
-78.22
-81.30
-84.90
-90.69
-100.01
-113.41
-130.06
-147.36
-160.94
-165.59
-156.94
-133.22
-96.30
-51.30
-5.00
36.41
69.01
91.69
105.55
112.59
114.62
112.82
107.94
100.76
92.43
84.34
77.77
73.48
71.45
70.99
71.08
70.84
69.83
68.18
66.29
64.48
62.76
60.63
57.34
52.15
44.71
35.27
24.62
13.95
4.42
-3.23
-8.97
-13.47
-17.93
-23.55
-31.01
-40.22
-50.23
-59.71
-67.50
-73.11
-76.92
-80.07
-84.05
-90.33
-100.00
-113.41
-129.68
-146.36
-159.39
-163.98
-155.98
-133.58
-98.28
-54.71
-9.22
32.15
65.30
88.80
103.34
110.67
112.56
110.30
104.79
97.00
88.14
79.64
72.86
68.64
67.06
67.45
68.68
69.63
69.55
68.29
66.18
63.71
61.18
58.49
55.18
50.69
44.57
36.81
27.79
18.25
9.02
0.87
-5.79
-10.97
-15.12
-19.03
-23.59
-29.48
-36.89
-45.43
-54.24
-62.33
-68.95
-73.92
-77.70
-81.28
-85.93
-92.96
-103.33
-117.12
-132.97
-147.74
-156.91
-155.74
-140.97
-112.25
-72.63
-27.70
16.16
53.70
82.02
100.58
110.47
113.29
110.51
103.35
93.09
81.32
69.89
60.54
54.35
51.45
51.02
51.77
52.47
52.46
51.77
50.85
50.05
49.22
47.65
44.31
38.48
30.19
20.30
10.21
1.24
-5.92
-11.51
-16.50
-22.16
-29.33
-38.05
-47.52
-56.47
-63.72
-68.73
-71.89
-74.36
-77.81
-83.91
-93.81
-107.48
-123.20
-137.46
-145.58
-143.03
-127.04
-97.88
-59.02
-16.05
25.01
59.49
85.02
101.39
109.70
111.42
107.82
100.02
89.27
77.17
65.58
56.17
49.94
47.00
46.56
47.38
48.32
48.76
48.70
48.48
48.31
47.91
46.41
42.72
36.11
26.63
15.30
3.74
-6.44
-14.28
-19.95
-24.50
-29.48
-36.15
-44.90
-55.09
-65.38
-74.37
-81.19
-85.93
-89.57
-93.70
-100.02
-109.84
-123.50
-139.78
-155.64
-166.56
-167.60
-155.11
-128.23
-89.50
-44.27
1.03
40.81
71.74
93.01
105.53
110.91
110.58
105.72
97.45
87.22
76.82
68.02
62.05
59.21
58.88
59.79
60.71
60.84
60.08
58.84
57.57
56.31
54.50
51.18
45.48
37.10
26.66
15.52
5.21
-3.19
-9.52
-14.61
-19.82
-26.41
-34.86
-44.74
-54.91
-64.05
-71.26
-76.45
-80.35
-84.26
-89.82
-98.51
-111.13
-127.14
-144.15
-157.98
-163.63
-156.82
-135.67
-101.67
-59.36
-14.85
26.10
59.60
84.15
100.17
108.97
111.95
110.28
104.99
97.34
88.86
81.19
75.60
72.57
71.75
72.07
72.36
71.82
70.36
68.44
66.66
65.27
63.91
61.61
57.34
50.48
41.22
30.56
19.93
10.62
3.30
-2.29
-7.15
-12.55
-19.46
-28.10
-37.83
-47.50
-55.96
-62.56
-67.46
-71.48
-76.00
-82.50
-92.23
-105.62
-121.80
-138.18
-150.71
-154.75
-146.59
-124.87
-91.29
-50.29
-7.65
31.25
62.79
85.56
99.99
107.43
109.36
106.98
101.35
93.62
85.23
77.67
72.17
69.22
68.46
68.84
69.17
68.68
67.27
65.40
63.64
62.11
60.32
57.30
52.18
44.69
35.38
25.44
16.16
8.36
2.03
-3.56
-9.49
-16.60
-25.10
-34.50
-43.79
-51.96
-58.35
-63.01
-66.70
-70.70
-76.49
-85.32
-97.64
-112.54
-127.49
-138.61
-141.57
-133.02
-111.91
-80.10
-41.89
-2.71
32.56
60.78
80.99
93.78
100.42
102.07
99.51
93.48
85.04
75.73
67.36
61.39
58.51
58.37
59.80
61.40
62.14
61.68
60.29
58.51
56.59
54.33
51.04
45.93
38.56
29.18
18.75
8.64
0.13
-6.18
-10.63
-14.38
-18.91
-25.36
-33.93
-43.86
-53.71
-62.08
-68.23
-72.35
-75.50
-79.22
-85.06
-94.08
-106.51
-121.32
-136.07
-147.06
-150.18
-142.07
-121.44
-89.75
-51.00
-10.52
26.57
56.75
78.66
92.77
100.56
103.65
103.27
100.30
95.49
89.69
83.86
78.91
75.42
73.44
72.59
72.26
71.87
71.14
70.04
68.63
66.91
64.68
61.63
57.43
52.00
45.57
38.57
31.47
24.63
18.13
11.82
5.54
-0.80
-7.03
-12.87
-18.13
-22.87
-27.53
-32.72
-38.98
-46.46
-54.76
-63.09
-70.59
-76.70
-81.48
-85.56
-90.08
-96.38
-105.59
-118.14
-133.15
-148.10
-159.02
-161.38
-151.61
-128.46
-93.78
-52.14
-9.43
28.94
59.48
81.06
94.47
101.46
103.78
102.72
99.21
94.00
88.00
82.18
77.40
74.13
72.34
71.54
71.10
70.53
69.66
68.59
67.47
66.29
64.74
62.31
58.47
53.03
46.25
38.76
31.36
24.64
18.75
13.41
8.07
2.26
-4.09
-10.61
-16.71
-21.89
-26.10
-29.87
-34.06
-39.48
-46.52
-54.87
-63.66
-71.86
-78.66
-83.85
-87.92
-91.91
-97.18
-104.99
-115.99
-129.58
-143.57
-154.25
-157.23
-148.81
-127.40
-94.40
-53.90
-11.51
27.40
59.08
81.99
96.54
104.18
106.52
104.92
100.41
93.92
86.50
79.26
73.21
68.99
66.70
65.95
66.08
66.44
66.64
66.50
66.02
65.08
63.45
60.78
56.80
51.51
45.23
38.39
31.44
24.58
17.76
10.87
3.85
-3.12
-9.69
-15.51
-20.46
-24.80
-29.11
-34.06
-40.10
-47.20
-54.83
-62.19
-68.53
-73.48
-77.28
-80.68
-84.85
-91.06
-100.33
-112.82
-127.31
-140.99
-149.78
-149.43
-136.90
-111.70
-76.26
-35.30
5.62
41.72
70.09
89.82
101.51
106.39
105.73
100.68
92.38
82.18
71.69
62.52
55.94
52.54
52.11
53.76
56.26
58.45
59.54
59.29
57.85
55.60
52.82
49.52
45.42
40.14
33.41
25.28
16.23
7.06
-1.35
-8.36
-13.82
-18.14
-22.18
-26.92
-33.06
-40.74
-49.47
-58.33
-66.32
-72.77
-77.62
-81.43
-85.25
-90.36
-98.02
-109.02
-123.19
-138.87
-152.81
-160.61
-157.93
-142.01
-112.85
-73.53
-29.31
13.94
51.38
80.24
99.87
111.16
115.58
114.58
109.41
101.23
91.33
81.22
72.41
66.06
62.71
62.07
63.23
64.99
66.29
66.55
65.66
63.93
61.69
59.09
56.00
52.01
46.68
39.70
31.15
21.48
11.51
2.14
-5.92
-12.39
-17.58
-22.27
-27.41
-33.77
-41.60
-50.57
-59.83
-68.41
-75.61
-81.28
-85.87
-90.35
-95.90
-103.77
-114.85
-129.21
-145.47
-160.58
-170.03
-169.04
-154.19
-124.89
-83.92
-36.79
10.05
51.05
82.95
104.96
118.06
123.94
124.19
120.11
112.88
103.82
94.45
86.27
80.34
77.04
76.04
76.46
77.26
77.61
77.02
75.44
73.08
70.24
67.05
63.42
58.95
53.14
45.59
36.24
25.49
14.10
3.06
-6.80
-15.06
-21.87
-27.87
-33.96
-40.94
-49.17
-58.45
-68.07
-77.12
-84.83
-90.93
-95.67
-99.86
-104.61
-111.19
-120.77
-133.90
-149.88
-166.27
-178.92
-182.89
-174.03
-150.57
-114.05
-68.94
-21.29
23.16
60.39
88.58
107.67
118.55
122.33
120.14
113.25
103.30
92.27
82.14
74.41
69.78
67.98
68.08
68.86
69.38
69.27
68.69
68.10
67.76
67.45
66.38
63.47
57.84
49.28
38.44
26.68
15.59
6.38
-0.66
-6.15
-11.40
-17.74
-25.88
-35.64
-46.03
-55.74
-63.71
-69.64
-74.05
-78.14
-83.42
-91.33
-102.79
-117.72
-134.57
-150.14
-160.03
-159.69
-145.99
-118.43
-79.62
-34.61
10.64
50.90
82.82
105.15
118.27
123.41
122.02
115.57
105.61
93.87
82.15
72.05
64.62
60.17
58.29
58.10
58.69
59.45
60.05
60.34
60.10
58.82
55.82
50.58
42.97
33.52
23.19
13.04
3.81
-4.39
-12.06
-20.02
-28.93
-38.91
-49.46
-59.60
-68.37
-75.26
-80.52
-85.23
-91.05
-99.70
-112.28
-128.43
-145.78
-160.10
-166.18
-159.51
-137.94
-102.70
-58.25
-10.89
33.18
69.49
96.01
112.87
121.41
123.30
120.06
113.00
103.57
93.34
83.93
76.60
71.97
69.80
69.25
69.24
68.94
68.10
66.96
65.94
65.13
64.01
61.52
56.51
48.36
37.36
24.76
12.27
1.35
-7.39
-14.40
-20.91
-28.29
-37.35
-47.97
-59.17
-69.56
-77.97
-83.96
-88.05
-91.57
-96.35
-104.25
-116.47
-132.85
-151.21
-167.33
-175.73
-171.32
-151.24
-116.25
-70.68
-21.18
25.41
64.00
92.24
110.30
119.84
122.87
121.11
115.85
108.24
99.57
91.21
84.46
80.09
78.19
78.08
78.63
78.71
77.59
75.23
72.16
69.11
66.53
64.25
61.40
56.84
49.65
39.69
27.74
15.30
4.04
-4.88
-11.23
-15.84
-20.21
-25.82
-33.57
-43.36
-54.22
-64.72
-73.61
-80.27
-84.98
-88.70
-92.88
-99.09
-108.71
-122.47
-139.79
-158.26
-173.60
-180.45
-174.00
-151.84
-115.16
-68.62
-18.94
27.21
65.10
92.69
110.29
119.56
122.41
120.41
114.88
107.08
98.48
90.60
84.67
81.22
80.00
80.04
80.16
79.49
77.74
75.31
72.89
70.98
69.47
67.55
64.04
57.90
48.81
37.42
25.18
13.76
4.44
-2.48
-7.72
-12.71
-18.90
-27.13
-37.24
-48.21
-58.56
-67.08
-73.26
-77.56
-81.20
-85.82
-93.06
-104.05
-118.80
-135.72
-151.43
-161.21
-160.26
-145.30
-115.99
-75.40
-29.16
16.23
55.31
84.91
104.34
114.63
117.59
114.99
108.32
98.93
88.29
77.88
69.10
62.84
59.36
58.21
58.53
59.34
59.86
59.68
58.62
56.62
53.54
49.15
43.27
35.93
27.48
18.48
9.46
0.68
-7.97
-16.82
-26.16
-35.92
-45.69
-54.77
-62.54
-68.79
-73.81
-78.55
-84.36
-92.67
-104.40
-119.17
-134.79
-147.28
-151.75
-143.99
-122.14
-87.67
-45.18
-0.94
39.04
70.68
92.41
104.84
109.67
108.75
103.51
95.06
84.48
73.15
62.63
54.38
49.34
47.63
48.49
50.64
52.63
53.35
52.23
49.24
44.73
39.16
32.93
26.18
18.87
10.84
1.90
-7.99
-18.65
-29.62
-40.29
-50.04
-58.44
-65.40
-71.23
-76.64
-82.61
-90.33
-100.87
-114.70
-130.95
-147.08
-158.91
-161.66
-151.52
-127.16
-90.54
-46.51
-1.32
39.26
71.38
93.69
106.83
112.55
112.74
109.05
102.78
95.12
87.26
80.31
75.10
71.91
70.44
69.91
69.48
68.59
67.14
65.43
63.76
62.07
59.77
55.88
49.54
40.53
29.50
17.80
6.91
-2.19
-9.44
-15.73
-22.36
-30.37
-40.00
-50.55
-60.77
-69.34
-75.60
-79.82
-83.23
-87.66
-95.03
-106.73
-122.81
-141.48
-158.95
-170.05
-169.67
-154.48
-124.35
-82.71
-35.58
10.28
49.38
78.72
97.97
108.64
112.97
112.94
109.97
105.02
98.97
92.73
87.25
83.19
80.75
79.52
78.67
77.38
75.21
72.31
69.25
66.64
64.62
62.59
59.43
53.92
45.46
34.48
22.34
10.86
1.51
-5.25
-10.19
-14.92
-21.08
-29.60
-40.17
-51.50
-61.92
-70.15
-75.91
-79.94
-83.73
-89.09
-97.65
-110.36
-126.88
-145.09
-161.04
-169.56
-165.82
-147.08
-113.97
-70.65
-23.51
20.82
57.41
84.06
101.09
110.28
113.68
112.89
108.91
102.60
94.95
87.25
80.81
76.53
74.60
74.42
74.93
75.04
74.06
71.94
69.11
66.19
63.57
61.14
58.25
54.01
47.66
39.00
28.57
17.55
7.31
-1.10
-7.37
-12.09
-16.43
-21.68
-28.68
-37.46
-47.23
-56.76
-64.87
-70.99
-75.33
-78.83
-82.87
-88.89
-98.04
-110.82
-126.63
-143.28
-157.01
-163.13
-157.34
-137.33
-103.94
-61.23
-15.31
27.55
62.73
88.09
103.83
111.50
112.89
109.49
102.39
92.79
82.15
72.26
64.76
60.64
59.84
61.29
63.38
64.65
64.34
62.58
60.10
57.72
55.74
53.76
50.83
45.94
38.54
28.91
18.12
7.62
-1.29
-8.00
-12.87
-17.03
-21.87
-28.46
-37.02
-46.87
-56.74
-65.32
-71.83
-76.28
-79.52
-82.92
-88.03
-96.25
-108.30
-123.72
-140.31
-154.17
-160.36
-154.42
-134.00
-100.07
-56.88
-10.75
31.99
66.70
91.41
106.54
113.80
115.13
112.03
105.54
96.66
86.65
77.03
69.30
64.47
62.72
63.40
65.32
67.23
68.24
67.99
66.60
64.40
61.64
58.37
54.38
49.37
43.08
35.45
26.72
17.36
8.00
-0.71
-8.26
-14.46
-19.49
-23.91
-28.51
-34.12
-41.25
-49.88
-59.42
-68.88
-77.22
-83.85
-88.80
-92.84
-97.26
-103.59
-113.18
-126.60
-143.09
-160.03
-173.09
-177.11
-167.65
-142.80
-104.15
-56.67
-7.19
37.65
73.26
97.90
112.37
118.78
119.40
115.99
109.71
101.55
92.60
84.18
77.50
73.31
71.59
71.62
72.32
72.73
72.36
71.26
69.75
68.08
66.16
63.59
59.86
54.59
47.74
39.60
30.67
21.44
12.35
3.77
-4.03
-10.86
-16.68
-21.73
-26.55
-31.87
-38.36
-46.27
-55.30
-64.61
-73.21
-80.38
-85.96
-90.52
-95.08
-101.00
-109.59
-121.76
-137.37
-154.62
-169.77
-177.76
-173.58
-154.13
-119.75
-74.43
-24.65
22.68
62.24
91.43
110.26
120.28
123.52
121.67
116.01
107.69
98.02
88.46
80.41
74.82
72.00
71.50
72.36
73.48
73.96
73.41
71.89
69.72
67.21
64.39
61.04
56.70
51.01
43.83
35.35
26.04
16.49
7.33
-0.99
-8.18
-14.25
-19.53
-24.63
-30.32
-37.21
-45.46
-54.67
-63.96
-72.31
-79.03
-84.01
-87.88
-91.74
-96.98
-104.96
-116.61
-131.90
-149.23
-165.05
-174.40
-172.14
-154.83
-122.26
-77.96
-28.16
20.12
61.19
92.01
112.17
123.07
126.64
124.56
118.13
108.53
97.18
85.82
76.17
69.50
66.21
65.76
66.95
68.35
68.92
68.28
66.68
64.73
62.92
61.26
59.20
55.87
50.40
42.43
32.31
21.05
10.02
0.47
-6.94
-12.35
-16.61
-20.99
-26.63
-34.12
-43.29
-53.23
-62.73
-70.72
-76.68
-80.88
-84.22
-88.03
-93.76
-102.69
-115.46
-131.46
-148.32
-161.86
-166.89
-158.81
-135.48
-98.27
-51.96
-3.23
41.39
77.39
102.92
118.39
125.37
125.50
120.13
110.37
97.56
83.53
70.38
60.06
53.77
51.61
52.59
55.09
57.51
58.87
59.01
58.38
57.58
56.77
55.46
52.66
47.32
38.96
28.00
15.73
3.92
-5.90
-13.01
-17.83
-21.70
-26.21
-32.57
-41.02
-50.75
-60.38
-68.55
-74.50
-78.39
-81.22
-84.46
-89.67
-98.18
-110.70
-126.79
-144.37
-159.55
-167.30
-162.78
-143.20
-109.07
-64.42
-15.61
30.65
69.18
97.42
115.23
123.90
125.06
120.11
110.29
97.05
82.39
68.70
58.19
52.20
50.78
52.73
56.10
59.04
60.43
60.22
59.08
57.81
56.70
55.21
52.16
46.42
37.46
25.85
13.07
0.99
-8.86
-16.00
-21.03
-25.44
-30.82
-38.24
-47.71
-58.32
-68.67
-77.45
-84.08
-88.82
-92.75
-97.42
-104.52
-115.40
-130.55
-148.86
-167.18
-180.53
-183.30
-171.08
-142.47
-100.00
-49.50
1.73
47.18
82.83
107.51
122.21
128.81
129.09
124.43
116.06
105.40
94.23
84.41
77.34
73.56
72.65
73.42
74.45
74.70
73.77
71.95
69.87
68.09
66.58
64.67
61.26
55.30
46.33
34.76
21.91
9.53
-0.86
-8.55
-13.97
-18.45
-23.70
-30.97
-40.58
-51.71
-62.89
-72.60
-79.97
-85.12
-89.06
-93.39
-99.84
-109.90
-124.32
-142.49
-161.93
-178.25
-185.90
-179.84
-157.39
-119.61
-71.28
-19.48
28.67
67.99
96.26
113.91
122.92
125.49
123.36
117.72
109.63
100.29
91.19
83.78
79.06
77.21
77.60
79.06
80.37
80.69
79.78
77.92
75.58
73.11
70.41
67.01
62.20
55.37
46.30
35.37
23.54
12.08
2.18
-5.52
-11.22
-15.83
-20.67
-26.92
-35.08
-44.87
-55.31
-65.16
-73.45
-79.81
-84.63
-88.88
-93.92
-101.23
-112.10
-127.07
-145.24
-163.77
-177.95
-182.31
-172.33
-146.37
-106.53
-58.31
-8.74
35.71
70.95
95.69
110.82
118.22
119.68
116.59
110.10
101.57
92.60
84.89
79.66
77.27
77.06
77.71
77.85
76.70
74.33
71.52
69.21
67.83
66.94
65.37
61.70
55.04
45.39
33.82
21.97
11.41
3.06
-3.16
-8.17
-13.33
-19.79
-28.04
-37.70
-47.72
-56.84
-64.13
-69.37
-73.20
-76.95
-82.29
-90.79
-103.34
-119.49
-136.99
-151.84
-159.06
-154.17
-134.85
-102.01
-59.77
-14.26
28.30
63.31
88.59
104.22
111.59
112.46
108.39
100.72
90.89
80.55
71.39
64.70
61.09
60.26
61.25
62.90
64.26
64.90
64.82
64.12
62.67
60.02
55.53
48.76
39.83
29.49
18.95
9.28
1.05
-5.97
-12.60
-19.87
-28.39
-38.11
-48.31
-57.86
-65.82
-71.87
-76.47
-80.88
-86.78
-95.81
-108.86
-125.43
-143.04
-157.46
-163.64
-157.21
-136.20
-101.93
-58.89
-13.35
28.60
62.66
87.12
102.52
110.62
113.30
111.99
107.58
100.88
92.95
85.15
78.85
75.00
73.67
74.06
74.87
74.87
73.46
70.85
67.80
65.07
62.93
60.85
57.79
52.66
44.92
34.88
23.63
12.64
3.17
-4.25
-9.99
-15.12
-20.96
-28.48
-37.85
-48.34
-58.64
-67.44
-74.01
-78.53
-82.07
-86.24
-92.70
-102.76
-116.87
-134.17
-152.14
-166.63
-172.68
-165.87
-144.08
-108.55
-63.81
-16.40
27.23
62.53
87.65
103.20
111.11
113.54
112.13
107.97
101.91
94.91
88.05
82.38
78.63
76.94
76.88
77.60
78.19
77.98
76.75
74.64
72.00
69.05
65.76
61.84
56.88
50.55
42.77
33.80
24.15
14.53
5.59
-2.19
-8.65
-14.09
-19.11
-24.54
-31.08
-39.03
-48.10
-57.51
-66.29
-73.62
-79.29
-83.73
-87.92
-93.13
-100.65
-111.49
-125.88
-142.74
-159.21
-170.88
-172.70
-160.71
-133.66
-93.87
-46.76
0.90
43.01
75.79
98.21
111.31
117.03
117.24
113.27
106.20
97.11
87.39
78.55
71.92
68.19
67.27
68.30
70.01
71.22
71.22
69.91
67.67
65.02
62.24
59.19
55.35
50.08
42.96
34.05
23.94
13.62
4.13
-3.81
-10.00
-14.87
-19.27
-24.17
-30.31
-37.91
-46.58
-55.52
-63.75
-70.54
-75.67
-79.55
-83.08
-87.55
-94.33
-104.50
-118.34
-134.68
-150.55
-161.42
-162.34
-149.51
-121.98
-82.28
-35.85
10.65
51.39
82.85
104.11
116.20
120.90
119.85
114.28
105.25
94.05
82.38
72.03
64.45
60.32
59.36
60.51
62.41
63.86
64.18
63.30
61.53
59.33
56.88
54.01
50.20
44.82
37.48
28.23
17.73
7.05
-2.66
-10.54
-16.41
-20.78
-24.75
-29.54
-36.04
-44.45
-54.22
-64.22
-73.27
-80.51
-85.81
-89.72
-93.35
-98.10
-105.43
-116.48
-131.49
-149.09
-165.85
-176.69
-176.17
-160.42
-128.86
-84.84
-34.68
14.36
56.29
87.87
108.68
120.16
124.35
122.96
117.19
108.14
97.15
86.00
76.48
69.90
66.67
66.12
66.89
67.55
67.19
65.73
63.80
62.21
61.37
60.89
59.68
56.37
49.95
40.29
28.28
15.57
3.98
-5.20
-11.71
-16.37
-20.72
-26.36
-34.24
-44.29
-55.47
-66.26
-75.32
-81.97
-86.51
-89.99
-93.95
-100.09
-109.85
-123.82
-141.07
-158.64
-171.78
-174.96
-163.79
-136.77
-96.24
-47.77
1.57
45.47
80.04
104.15
118.75
125.59
126.24
121.88
113.53
102.54
90.69
79.94
71.86
67.22
65.73
66.27
67.46
68.11
67.69
66.30
64.45
62.64
60.96
58.89
55.50
49.83
41.36
30.44
18.26
6.47
-3.45
-10.81
-16.01
-20.34
-25.39
-32.33
-41.41
-51.86
-62.29
-71.31
-78.08
-82.68
-86.03
-89.58
-94.95
-103.58
-116.24
-132.50
-150.17
-165.21
-172.38
-166.78
-145.69
-109.84
-63.56
-13.45
33.66
72.69
101.25
119.31
128.23
129.63
124.92
115.40
102.64
88.66
75.66
65.45
58.95
55.95
55.41
56.03
56.83
57.44
57.97
58.59
59.09
58.69
56.25
50.84
42.26
31.25
19.30
8.03
-1.45
-8.98
-15.33
-21.75
-29.30
-38.36
-48.45
-58.48
-67.29
-74.23
-79.40
-83.69
-88.59
-95.76
-106.55
-121.33
-138.77
-155.57
-166.78
-167.09
-152.68
-122.79
-80.42
-31.52
16.90
58.88
90.92
112.25
124.00
127.98
125.84
118.85
108.21
95.47
82.57
71.55
63.89
60.06
59.39
60.46
61.75
62.30
61.94
61.13
60.38
59.70
58.39
55.25
49.23
40.01
28.31
15.65
3.84
-5.80
-12.96
-18.44
-23.72
-30.27
-38.92
-49.41
-60.57
-70.85
-78.98
-84.58
-88.30
-91.74
-96.89
-105.68
-119.20
-136.99
-156.53
-173.22
-181.33
-175.69
-153.63
-116.27
-68.40
-17.04
30.76
69.92
98.21
115.89
124.60
126.31
122.63
114.98
104.80
93.81
83.75
76.01
71.18
68.99
68.46
68.49
68.25
67.54
66.62
65.86
65.23
64.16
61.59
56.49
48.38
37.74
25.80
14.13
3.96
-4.36
-11.41
-18.33
-26.22
-35.58
-46.02
-56.50
-65.86
-73.35
-78.97
-83.55
-88.52
-95.60
-106.28
-121.12
-138.99
-156.69
-169.23
-171.12
-158.26
-129.65
-88.11
-39.53
8.98
51.29
83.77
105.55
117.78
122.42
121.31
115.83
107.17
96.59
85.62
75.77
68.27
63.69
61.84
61.92
62.88
63.75
63.87
62.92
60.82
57.57
53.08
47.33
40.33
32.28
23.47
14.17
4.54
-5.42
-15.71
-26.19
-36.47
-46.00
-54.29
-61.12
-66.80
-72.08
-78.05
-85.94
-96.79
-110.90
-127.22
-142.95
-153.77
-154.87
-142.58
-115.94
-77.45
-32.41
12.67
52.07
82.32
102.47
113.47
117.03
114.81
108.18
98.39
86.90
75.49
65.85
59.20
55.91
55.47
56.74
58.56
60.04
60.76
60.60
59.46
57.00
52.72
46.19
37.42
27.02
16.08
5.73
-3.36
-11.23
-18.64
-26.56
-35.59
-45.63
-55.86
-65.15
-72.69
-78.41
-83.09
-88.17
-95.36
-106.09
-120.93
-138.90
-157.11
-170.91
-174.99
-165.06
-139.52
-100.48
-53.25
-4.72
38.74
73.04
96.87
111.14
117.79
118.76
115.54
109.31
101.23
92.69
85.06
79.38
76.01
74.59
74.21
73.94
73.19
71.89
70.34
68.75
66.95
64.27
59.78
52.80
43.29
32.02
20.34
9.60
0.57
-6.81
-13.44
-20.49
-28.84
-38.64
-49.22
-59.42
-68.11
-74.76
-79.67
-84.02
-89.55
-98.08
-110.84
-127.67
-146.44
-163.00
-172.03
-168.50
-149.64
-116.11
-72.10
-24.04
21.40
59.27
87.31
105.69
116.07
120.33
119.93
115.86
109.02
100.60
92.09
84.97
80.20
77.90
77.31
77.25
76.65
75.06
72.75
70.35
68.36
66.62
64.27
60.10
53.15
43.32
31.51
19.37
8.60
0.26
-5.73
-10.49
-15.62
-22.50
-31.55
-42.15
-52.90
-62.31
-69.54
-74.71
-78.92
-83.75
-90.83
-101.39
-115.77
-133.01
-150.46
-163.91
-168.42
-159.81
-136.32
-99.56
-54.32
-7.08
35.96
70.57
95.12
110.15
117.23
118.01
113.84
105.95
95.79
85.12
75.80
69.20
65.79
65.06
65.77
66.59
66.60
65.63
64.05
62.35
60.63
58.34
54.51
48.23
39.24
28.21
16.57
5.96
-2.55
-8.86
-13.90
-19.15
-25.87
-34.51
-44.50
-54.59
-63.41
-70.14
-74.82
-78.41
-82.44
-88.69
-98.58
-112.57
-129.52
-146.33
-158.28
-160.17
-148.14
-121.19
-81.91
-35.81
10.43
50.99
82.39
103.76
116.16
121.40
121.06
116.29
107.98
97.31
85.89
75.61
68.09
64.15
63.58
65.20
67.44
68.91
68.89
67.39
64.88
61.86
58.58
54.86
50.23
44.21
36.55
27.40
17.33
7.19
-2.07
-9.77
-15.70
-20.23
-24.26
-28.87
-34.98
-42.97
-52.50
-62.63
-72.18
-80.14
-86.13
-90.52
-94.40
-99.28
-106.76
-118.05
-133.38
-151.39
-168.77
-180.62
-181.62
-167.76
-138.08
-95.34
-45.40
4.56
48.26
81.90
104.59
117.62
123.16
123.27
119.41
112.65
104.06
94.99
86.88
80.92
77.67
76.82
77.45
78.38
78.70
77.98
76.33
74.09
71.56
68.73
65.32
60.92
55.18
47.99
39.51
30.17
20.55
11.28
2.88
-4.37
-10.56
-16.15
-21.88
-28.54
-36.65
-46.22
-56.69
-67.09
-76.39
-83.88
-89.45
-93.66
-97.61
-102.71
-110.46
-121.97
-137.38
-155.11
-171.59
-181.63
-179.89
-162.74
-129.89
-84.84
-33.96
15.55
57.81
89.61
110.55
122.10
126.39
125.29
120.10
111.85
101.71
91.18
81.89
75.18
71.65
70.96
71.99
73.34
73.86
73.08
71.19
68.80
66.40
64.04
61.19
57.05
50.86
42.37
32.02
20.81
10.01
0.72
-6.53
-11.95
-16.38
-20.99
-26.78
-34.28
-43.30
-53.00
-62.30
-70.24
-76.38
-80.99
-84.90
-89.32
-95.60
-104.95
-118.13
-134.80
-152.94
-168.61
-176.62
-171.96
-151.75
-116.59
-70.75
-20.82
26.33
65.59
94.56
113.29
123.16
125.74
122.32
113.95
101.98
88.33
75.27
64.85
58.26
55.52
55.53
56.72
57.71
57.85
57.27
56.55
56.07
55.64
54.33
50.90
44.44
34.92
23.32
11.35
0.71
-7.57
-13.61
-18.54
-23.93
-31.05
-40.22
-50.70
-61.08
-69.93
-76.46
-80.81
-84.03
-87.75
-93.73
-103.42
-117.37
-134.63
-152.26
-165.57
-169.16
-158.63
-132.45
-92.79
-45.09
3.66
47.16
81.40
105.14
119.16
125.17
124.74
119.12
109.41
97.10
84.10
72.43
63.68
58.49
56.44
56.39
57.05
57.56
57.73
57.80
57.96
57.96
56.91
53.62
47.17
37.42
25.28
12.38
0.46
-9.35
-16.94
-23.26
-29.72
-37.60
-47.32
-58.34
-69.40
-79.12
-86.67
-92.12
-96.49
-101.42
-108.76
-119.99
-135.53
-153.99
-171.90
-184.06
-184.88
-170.27
-139.34
-95.11
-43.72
7.48
52.15
86.54
109.71
122.83
127.91
126.92
121.42
112.79
102.44
91.94
82.71
75.73
71.27
68.94
67.94
67.48
67.03
66.43
65.66
64.59
62.76
59.43
53.95
46.10
36.33
25.65
15.19
5.69
-2.83
-10.98
-19.65
-29.42
-40.23
-51.37
-61.77
-70.56
-77.42
-82.80
-87.88
-94.30
-103.75
-117.32
-134.68
-153.45
-169.20
-176.37
-170.01
-147.67
-110.64
-63.74
-13.80
32.47
70.38
98.00
115.75
125.25
128.28
126.17
120.00
110.97
100.63
90.78
82.95
77.95
75.62
75.00
74.87
74.29
73.02
71.41
69.94
68.76
67.34
64.56
59.29
50.94
39.93
27.57
15.58
5.36
-2.64
-9.05
-15.25
-22.65
-31.93
-42.75
-53.87
-63.85
-71.67
-77.30
-81.64
-86.24
-92.87
-102.99
-117.24
-134.85
-153.19
-167.76
-173.19
-164.85
-140.69
-102.37
-55.01
-5.57
39.31
75.14
100.30
115.39
122.20
122.55
117.86
109.31
98.24
86.28
75.19
66.50
61.05
58.84
59.16
60.84
62.67
63.71
63.32
61.32
57.72
52.68
46.42
39.15
31.05
22.23
12.74
2.58
-8.21
-19.37
-30.45
-40.83
-49.94
-57.47
-63.56
-68.74
-73.89
-80.09
-88.50
-100.12
-115.21
-132.65
-149.41
-160.78
-161.60
-148.10
-119.51
-78.81
-31.88
14.48
54.57
85.26
106.05
118.22
123.56
123.54
119.17
111.33
101.23
90.58
81.23
74.70
71.64
71.59
73.25
74.98
75.47
74.25
71.71
68.68
65.90
63.42
60.56
56.17
49.31
39.72
28.06
15.74
4.37
-4.84
-11.53
-16.33
-20.56
-25.74
-32.98
-42.50
-53.59
-64.90
-74.96
-82.84
-88.51
-92.83
-97.25
-103.41
-112.77
-126.21
-143.50
-162.71
-179.99
-190.10
-187.72
-169.39
-135.09
-88.61
-36.57
13.69
56.34
88.33
109.49
121.51
126.66
126.85
123.39
117.22
109.38
101.13
93.83
88.53
85.67
84.89
85.26
85.67
85.28
83.78
81.38
78.49
75.46
72.30
68.65
64.03
58.01
50.41
41.36
31.29
20.83
10.72
1.62
-5.99
-12.10
-17.13
-21.95
-27.53
-34.59
-43.28
-53.08
-63.01
-72.04
-79.50
-85.38
-90.31
-95.33
-101.72
-110.72
-123.25
-139.29
-157.28
-173.70
-183.51
-181.50
-164.11
-131.07
-85.96
-35.11
14.31
56.52
88.42
109.67
121.75
126.71
126.34
121.99
114.81
106.07
97.22
89.63
84.21
81.20
80.17
80.25
80.56
80.48
79.79
78.56
76.88
74.72
71.79
67.71
62.23
55.39
47.54
39.23
30.97
23.04
15.45
8.06
0.78
-6.30
-12.91
-18.82
-24.07
-29.11
-34.69
-41.50
-49.74
-58.95
-68.13
-76.16
-82.36
-86.86
-90.55
-94.88
-101.43
-111.50
-125.54
-142.61
-159.92
-172.99
-176.59
-166.38
-140.66
-101.32
-53.54
-4.12
40.55
76.24
101.42
116.73
123.78
124.21
119.32
110.30
98.62
86.17
75.01
66.80
62.37
61.47
62.99
65.41
67.36
68.03
67.24
65.32
62.75
59.84
56.51
52.39
46.91
39.68
30.71
20.57
10.18
0.66
-7.16
-13.01
-17.31
-21.05
-25.43
-31.42
-39.34
-48.76
-58.64
-67.81
-75.39
-81.15
-85.57
-89.71
-94.92
-102.52
-113.59
-128.35
-145.59
-162.25
-173.63
-174.58
-161.15
-132.32
-90.71
-41.96
7.07
50.32
84.09
107.29
120.87
126.62
126.36
121.53
113.41
103.36
92.89
83.52
76.35
71.93
70.07
70.07
70.97
71.89
72.23
71.73
70.34
68.15
65.19
61.41
56.66
50.80
43.73
35.54
26.48
16.97
7.58
-1.17
-8.83
-15.25
-20.59
-25.44
-30.54
-36.65
-44.18
-52.98
-62.40
-71.52
-79.49
-85.92
-91.01
-95.49
-100.47
-107.32
-117.35
-131.31
-148.71
-167.06
-181.79
-187.20
-178.19
-152.38
-111.38
-60.57
-7.43
40.89
79.52
106.70
123.23
131.11
132.41
128.65
120.95
110.53
98.95
88.06
79.45
74.07
71.87
71.99
73.17
74.28
74.68
74.26
73.22
71.70
69.63
66.66
62.41
56.70
49.60
41.45
32.71
23.79
14.99
6.53
-1.40
-8.62
-14.99
-20.56
-25.69
-31.06
-37.37
-45.06
-54.00
-63.46
-72.43
-80.01
-85.89
-90.46
-94.70
-99.91
-107.43
-118.35
-133.06
-150.53
-167.86
-180.30
-182.32
-169.48
-140.24
-97.05
-45.76
6.19
52.16
88.03
112.63
127.00
133.07
132.61
126.92
117.09
104.56
91.23
79.25
70.38
65.50
64.26
65.36
67.12
68.14
67.80
66.28
64.23
62.22
60.37
58.20
54.86
49.55
41.92
32.25
21.41
10.55
0.79
-7.18
-13.31
-18.22
-22.93
-28.58
-35.91
-44.96
-55.05
-65.02
-73.66
-80.23
-84.75
-87.94
-91.15
-95.96
-103.97
-116.20
-132.49
-150.76
-166.88
-175.32
-170.78
-150.18
-114.07
-66.83
-15.26
33.50
74.05
103.79
122.69
132.26
134.34
130.44
121.76
109.59
95.67
82.12
71.04
63.91
61.14
61.91
64.64
67.51
69.18
69.13
67.65
65.38
62.89
60.26
56.99
52.33
45.60
36.63
25.87
14.31
3.16
-6.52
-14.19
-20.03
-24.85
-29.77
-35.85
-43.65
-53.05
-63.27
-73.20
-81.82
-88.59
-93.66
-97.76
-102.15
-108.27
-117.56
-130.93
-148.09
-166.89
-183.14
-191.26
-185.87
-163.83
-125.72
-76.00
-21.76
29.51
72.15
103.40
123.29
133.55
136.34
133.49
126.33
116.15
104.42
92.89
83.22
76.60
73.37
73.00
74.36
76.10
77.18
77.09
75.95
74.19
72.21
70.02
67.11
62.68
55.98
46.76
35.49
23.22
11.31
0.92
-7.29
-13.46
-18.32
-23.00
-28.62
-35.97
-45.21
-55.82
-66.77
-76.82
-84.97
-90.88
-95.02
-98.67
-103.65
-111.85
-124.60
-141.88
-161.60
-179.53
-189.94
-187.21
-167.82
-131.91
-83.53
-29.57
22.38
66.29
98.98
120.19
131.61
135.56
133.97
128.20
119.33
108.62
97.62
88.02
81.15
77.54
76.76
77.66
78.90
79.44
78.90
77.46
75.58
73.61
71.46
68.68
64.58
58.57
50.41
40.35
29.12
17.75
7.29
-1.49
-8.40
-13.86
-18.84
-24.46
-31.65
-40.65
-51.02
-61.65
-71.31
-79.09
-84.79
-88.99
-92.87
-97.85
-105.38
-116.53
-131.57
-149.37
-166.88
-179.31
-181.17
-168.09
-138.65
-95.34
-44.02
7.88
53.76
89.46
113.81
127.87
133.66
133.12
127.71
118.59
107.07
94.76
83.48
74.82
69.71
68.15
69.24
71.56
73.66
74.60
74.10
72.44
70.13
67.46
64.31
60.19
54.55
47.07
37.89
27.61
17.10
7.26
-1.28
-8.22
-13.72
-18.32
-22.79
-27.94
-34.35
-42.18
-51.04
-60.15
-68.60
-75.68
-81.21
-85.59
-89.80
-95.14
-103.04
-114.60
-129.91
-147.41
-163.46
-172.92
-170.43
-152.43
-118.74
-73.04
-21.86
27.47
69.07
99.78
119.27
129.05
131.15
127.29
118.79
106.89
93.23
79.84
68.81
61.62
58.72
59.42
62.17
65.30
67.54
68.36
67.92
66.66
64.88
62.49
59.04
53.98
46.96
38.08
27.81
16.96
6.41
-3.12
-11.15
-17.63
-22.91
-27.69
-32.85
-39.15
-46.98
-56.14
-65.90
-75.26
-83.36
-89.80
-94.82
-99.21
-104.24
-111.38
-122.04
-136.89
-155.07
-173.59
-187.41
-190.64
-178.51
-149.36
-105.62
-53.27
0.08
47.61
84.98
110.85
126.15
132.88
133.05
128.32
120.07
109.74
98.91
89.16
81.74
77.26
75.60
75.97
77.27
78.48
78.95
78.46
77.13
75.16
72.60
69.24
64.74
58.80
51.32
42.49
32.73
22.63
12.74
3.56
-4.59
-11.62
-17.71
-23.32
-29.11
-35.75
-43.66
-52.82
-62.70
-72.42
-81.06
-88.09
-93.57
-98.22
-103.31
-110.41
-120.98
-135.79
-154.16
-173.40
-188.82
-194.73
-186.13
-160.68
-119.86
-68.85
-14.92
34.73
75.00
103.74
121.42
129.99
131.72
128.47
121.64
112.49
102.39
92.84
85.22
80.37
78.38
78.53
79.66
80.55
80.35
78.85
76.39
73.56
70.79
68.04
64.70
59.89
52.86
43.39
32.02
19.90
8.45
-1.21
-8.61
-14.14
-18.86
-24.08
-30.89
-39.67
-49.98
-60.77
-70.82
-79.19
-85.61
-90.53
-94.99
-100.34
-108.04
-119.31
-134.65
-153.06
-171.57
-185.33
-188.78
-177.44
-149.82
-108.25
-58.39
-7.42
38.18
74.34
99.79
115.44
123.16
124.78
121.65
114.88
105.70
95.68
86.54
79.76
76.06
75.17
75.99
77.07
77.31
76.33
74.53
72.63
71.11
69.73
67.58
63.40
56.33
46.36
34.50
22.35
11.53
2.98
-3.39
-8.62
-14.17
-21.26
-30.29
-40.74
-51.36
-60.82
-68.25
-73.60
-77.66
-81.77
-87.52
-96.33
-109.08
-125.45
-143.50
-159.42
-168.25
-165.24
-147.58
-115.71
-73.44
-26.87
17.56
54.92
82.74
100.93
110.80
114.04
112.10
106.17
97.45
87.43
77.78
70.06
65.26
63.52
64.19
66.15
68.20
69.47
69.55
68.29
65.64
61.47
55.58
47.94
38.83
28.92
19.02
9.75
1.25
-6.84
-15.13
-24.07
-33.63
-43.26
-52.10
-59.51
-65.37
-70.25
-75.37
-82.24
-92.30
-106.21
-123.27
-141.00
-155.21
-160.98
-154.13
-132.85
-98.55
-55.68
-10.37
31.43
65.59
90.45
106.49
115.31
118.62
117.68
113.34
106.46
98.20
90.01
83.26
78.85
76.82
76.44
76.56
76.21
74.98
73.05
70.89
68.76
66.40
63.02
57.69
49.81
39.52
27.81
16.18
6.06
-1.75
-7.43
-12.11
-17.34
-24.44
-33.86
-44.99
-56.44
-66.63
-74.50
-80.01
-84.07
-88.34
-94.69
-104.72
-119.14
-137.24
-156.44
-172.41
-179.87
-174.18
-153.01
-117.52
-72.28
-23.87
21.13
58.06
84.98
102.46
112.44
117.07
117.93
115.98
111.87
106.30
100.21
94.59
90.23
87.43
85.95
85.18
84.48
83.46
82.07
80.46
78.75
76.72
73.89
69.72
63.89
56.54
48.24
39.67
31.37
23.50
15.94
8.48
1.06
-6.12
-12.76
-18.69
-24.12
-29.58
-35.75
-43.12
-51.67
-60.86
-69.83
-77.77
-84.28
-89.57
-94.40
-99.92
-107.45
-118.15
-132.47
-149.49
-166.41
-178.74
-181.27
-169.82
-143.04
-103.22
-55.84
-7.81
34.74
68.06
91.21
105.42
112.76
115.14
113.87
109.87
104.05
97.52
91.51
86.94
84.13
82.78
82.08
81.27
79.91
78.12
76.32
74.88
73.80
72.54
70.21
66.01
59.70
51.70
43.03
34.83
27.88
22.27
17.42
12.43
6.60
-0.20
-7.47
-14.34
-20.12
-24.68
-28.60
-32.89
-38.50
-45.81
-54.42
-63.42
-71.68
-78.49
-83.74
-88.02
-92.40
-98.24
-106.80
-118.84
-133.98
-150.13
-163.47
-169.06
-162.45
-141.33
-106.74
-62.98
-16.39
26.77
61.97
87.29
103.10
111.04
112.94
110.26
104.07
95.39
85.49
75.91
68.14
63.21
61.32
61.81
63.44
64.90
65.31
64.45
62.65
60.41
58.07
55.49
52.17
47.56
41.29
33.43
24.48
15.20
6.44
-1.11
-7.18
-11.95
-16.10
-20.53
-26.09
-33.22
-41.71
-50.82
-59.51
-66.91
-72.60
-76.84
-80.36
-84.29
-89.84
-98.16
-109.92
-124.73
-140.60
-153.82
-159.63
-153.63
-133.49
-100.02
-57.28
-11.34
31.63
67.02
92.66
108.63
116.39
117.78
114.44
107.63
98.54
88.44
78.70
70.58
64.97
62.09
61.52
62.39
63.71
64.70
64.92
64.25
62.71
60.30
56.94
52.50
46.90
40.23
32.70
24.61
16.22
7.83
-0.31
-7.88
-14.65
-20.48
-25.50
-30.18
-35.19
-41.21
-48.60
-57.23
-66.45
-75.36
-83.10
-89.29
-94.10
-98.35
-103.25
-110.26
-120.66
-134.95
-152.15
-169.27
-181.51
-183.35
-170.47
-141.46
-98.77
-48.17
3.08
48.41
83.71
107.75
121.63
127.49
127.46
123.17
115.86
106.72
97.06
88.25
81.33
76.82
74.50
73.62
73.29
72.77
71.77
70.38
68.80
67.12
65.17
62.54
58.79
53.64
47.06
39.25
30.54
21.30
11.93
2.80
-5.68
-13.21
-19.66
-25.22
-30.39
-35.89
-42.37
-50.17
-59.09
-68.46
-77.39
-85.10
-91.23
-96.07
-100.49
-105.80
-113.53
-124.92
-140.19
-157.88
-174.43
-184.65
-183.10
-166.01
-132.90
-87.10
-34.89
16.47
60.91
94.88
117.64
130.43
135.31
134.27
128.84
120.31
109.98
99.28
89.61
82.07
77.14
74.60
73.72
73.63
73.66
73.48
73.10
72.50
71.53
69.75
66.62
61.78
55.20
47.23
38.42
29.30
20.20
11.28
2.61
-5.66
-13.30
-20.11
-26.07
-31.52
-37.06
-43.38
-50.88
-59.43
-68.44
-77.06
-84.57
-90.72
-95.80
-100.61
-106.35
-114.36
-125.77
-140.87
-158.35
-174.84
-185.23
-184.01
-167.19
-134.08
-87.99
-35.30
16.48
61.07
94.90
117.30
129.63
133.95
132.09
125.38
114.96
102.27
89.21
77.83
69.74
65.62
64.92
66.22
67.84
68.51
67.81
66.11
64.13
62.40
60.83
58.70
55.00
48.89
40.11
29.17
17.28
5.93
-3.59
-10.70
-15.80
-20.10
-25.12
-32.04
-41.14
-51.65
-62.12
-71.04
-77.52
-81.64
-84.40
-87.37
-92.25
-100.51
-112.98
-129.28
-147.34
-163.27
-171.87
-168.15
-149.02
-114.78
-69.34
-19.10
29.02
69.59
99.78
119.31
129.48
132.03
128.47
120.05
108.09
94.33
80.92
69.91
62.74
59.75
60.07
62.08
64.09
64.95
64.46
63.14
61.73
60.53
59.13
56.45
51.34
43.19
32.26
19.80
7.53
-2.97
-10.87
-16.40
-20.71
-25.41
-31.82
-40.53
-51.08
-62.25
-72.55
-80.87
-86.89
-91.20
-95.09
-100.23
-108.24
-120.31
-136.54
-155.25
-172.74
-183.68
-182.52
-165.50
-132.26
-86.34
-34.27
16.58
60.12
93.05
114.86
127.01
131.64
130.69
125.55
117.39
107.47
97.23
88.18
81.48
77.63
76.26
76.37
76.73
76.39
74.99
72.82
70.47
68.41
66.61
64.45
60.99
55.29
46.92
36.15
23.96
11.75
0.88
-7.80
-14.23
-19.20
-24.00
-29.96
-37.83
-47.55
-58.20
-68.49
-77.25
-83.98
-88.98
-93.30
-98.36
-105.67
-116.49
-131.38
-149.57
-168.43
-183.46
-189.11
-180.54
-155.43
-115.34
-65.44
-12.98
35.00
73.67
101.18
118.25
126.90
129.27
126.97
121.18
113.00
103.80
95.10
88.27
84.08
82.43
82.47
83.01
83.00
81.91
79.83
77.25
74.62
72.09
69.29
65.53
60.07
52.46
42.78
31.66
20.13
9.36
0.29
-6.74
-12.08
-16.76
-22.04
-28.95
-37.84
-48.23
-58.96
-68.73
-76.61
-82.40
-86.71
-90.78
-96.12
-104.24
-116.27
-132.33
-150.96
-168.72
-180.49
-180.82
-165.80
-134.73
-90.78
-40.15
9.94
53.43
86.83
109.49
122.68
128.40
128.46
124.16
116.60
106.98
96.76
87.53
80.54
76.44
75.03
75.46
76.54
77.23
76.91
75.50
73.26
70.51
67.40
63.81
59.39
53.80
46.82
38.49
29.07
19.10
9.26
0.25
-7.43
-13.61
-18.59
-23.12
-28.10
-34.28
-41.92
-50.66
-59.69
-68.05
-75.06
-80.52
-84.89
-89.14
-94.54
-102.48
-113.98
-129.19
-146.63
-162.92
-173.12
-172.10
-156.26
-125.19
-82.09
-32.96
15.30
56.92
88.63
109.79
121.62
126.02
124.71
119.02
110.11
99.35
88.42
79.02
72.48
69.29
69.03
70.50
72.32
73.36
73.08
71.57
69.26
66.57
63.63
60.20
55.79
49.93
42.39
33.32
23.27
13.06
3.56
-4.59
-11.12
-16.33
-20.96
-26.01
-32.38
-40.50
-50.14
-60.49
-70.46
-79.05
-85.78
-90.84
-95.07
-99.78
-106.50
-116.63
-130.83
-148.37
-166.48
-180.49
-184.84
-174.85
-148.60
-107.99
-58.44
-7.16
39.07
75.77
101.43
116.96
124.49
126.17
123.61
117.95
110.20
101.60
93.53
87.16
83.18
81.47
81.26
81.45
81.10
79.73
77.49
74.85
72.32
70.02
67.64
64.51
59.93
53.49
45.23
35.62
25.37
15.28
6.04
-1.94
-8.56
-14.13
-19.32
-24.94
-31.70
-39.88
-49.15
-58.70
-67.52
-74.90
-80.65
-85.28
-89.86
-95.82
-104.65
-117.52
-134.60
-154.37
-173.21
-185.85
-186.72
-171.88
-140.76
-96.67
-45.92
4.18
47.52
80.62
102.83
115.49
120.78
120.68
116.72
110.07
101.87
93.37
85.81
80.19
76.92
75.73
75.80
76.11
75.85
74.67
72.74
70.48
68.24
66.03
63.49
60.01
55.04
48.29
39.84
30.16
20.01
10.21
1.51
-5.67
-11.37
-16.14
-20.89
-26.57
-33.77
-42.50
-52.10
-61.56
-69.88
-76.51
-81.55
-85.78
-90.36
-96.65
-105.92
-118.93
-135.35
-153.23
-168.78
-176.93
-172.80
-153.42
-119.17
-74.01
-24.36
22.92
62.51
91.76
110.56
120.38
123.09
120.29
113.19
103.05
91.44
80.21
71.12
65.27
62.77
62.75
63.81
64.63
64.54
63.59
62.29
61.10
59.94
58.02
54.23
47.65
38.16
26.63
14.63
3.88
-4.58
-10.77
-15.75
-21.08
-28.04
-36.98
-47.22
-57.36
-65.97
-72.25
-76.39
-79.49
-83.28
-89.54
-99.70
-114.18
-131.81
-149.45
-162.33
-165.14
-153.76
-126.94
-87.11
-39.78
8.20
50.73
83.99
106.89
120.28
125.94
125.54
120.43
111.82
101.11
89.98
80.15
72.86
68.49
66.55
65.95
65.52
64.56
63.04
61.42
60.16
59.27
58.02
55.20
49.64
40.84
29.36
16.69
4.66
-5.25
-12.60
-18.09
-23.27
-29.76
-38.49
-49.25
-60.83
-71.54
-80.00
-85.78
-89.57
-92.99
-98.08
-106.78
-120.19
-137.93
-157.62
-174.79
-183.79
-179.35
-158.57
-122.22
-74.88
-23.51
24.73
64.57
93.67
112.38
122.60
126.48
125.64
121.12
113.76
104.66
95.22
86.95
80.95
77.55
76.22
75.83
75.20
73.62
71.11
68.27
65.82
64.03
62.40
59.80
54.91
46.94
36.08
23.58
11.24
0.78
-7.01
-12.49
-17.04
-22.37
-29.79
-39.58
-50.93
-62.32
-72.22
-79.65
-84.61
-88.00
-91.42
-96.70
-105.55
-119.01
-136.78
-156.65
-174.29
-184.06
-180.57
-160.69
-124.92
-77.63
-25.68
23.74
65.13
95.82
115.79
126.62
130.33
128.62
122.79
114.03
103.70
93.38
84.57
78.30
74.84
73.56
73.32
72.92
71.62
69.41
66.87
64.71
63.14
61.63
58.94
53.71
45.15
33.56
20.30
7.33
-3.59
-11.65
-17.27
-21.82
-27.04
-34.15
-43.43
-54.12
-64.80
-74.08
-81.14
-86.03
-89.73
-93.80
-100.08
-110.15
-124.70
-142.77
-161.39
-175.68
-180.06
-170.03
-143.99
-104.10
-55.89
-6.45
37.75
72.55
96.61
110.81
116.98
116.91
111.89
102.92
91.21
78.35
66.26
56.76
51.00
49.12
50.26
52.86
55.26
56.20
55.14
52.22
47.96
42.89
37.27
31.13
24.24
16.38
7.42
-2.58
-13.34
-24.37
-35.07
-44.89
-53.44
-60.69
-66.91
-72.74
-79.13
-87.24
-98.21
-112.56
-129.43
-146.09
-158.08
-160.32
-148.92
-122.80
-84.41
-39.08
6.67
47.14
78.87
100.83
113.86
119.52
119.32
114.50
106.25
95.99
85.42
76.26
69.71
66.17
65.13
65.49
66.10
66.23
65.69
64.68
63.34
61.42
58.22
52.91
44.96
34.63
22.93
11.34
1.15
-7.06
-13.67
-19.79
-26.76
-35.43
-45.79
